raman_shift_reported_cm-1,counts,wavelength_true_nm,raman_shift_corrected_cm-1
0.764,4356.28334,786.0423852730813,24.046551007556644
4.975,3532.24562,786.3018070623722,28.243862610066987
9.182,2972.84562,786.5611538186729,32.43719272302088
13.386,2574.45143,786.8204869306082,36.62753808336694
17.586,2225.48831,787.0797444528127,40.81390192540134
21.783,1865.02117,787.3389878548743,44.99728098870731
25.977,1537.91477,787.5982169392785,49.177675261549446
30.167,1240.35229,787.8573696375877,53.35408797433596
34.353,1008.15964,788.1164456294423,57.52651911143051
38.536,853.0229,788.375506546446,61.695965417694204
42.716,720.81747,788.6345521900561,65.86242688141766
46.892,638.91666,788.8935203276383,70.02490672785048
51.064,576.53381,789.1524106377328,74.1834049414105
55.234,516.16241,789.4113470295306,78.33991503785818
59.399,475.71328,789.6701429570602,82.49144670855478
63.562,460.82123,789.9289845669192,86.64099023882434
67.721,428.42111,790.1877473056298,90.78655208182018
71.876,413.93153,790.4464308503661,94.92813222202736
76.028,407.49173,790.7050971976673,99.06672741607494
80.177,406.88778,790.963746146706,103.20233765234677
84.322,415.3392,791.2223150950498,107.33396614453268
88.464,426.0055,791.4808661610112,111.4626096531692
92.602,440.09191,791.7393366599089,115.58727138938092
96.737,460.2162,791.9977887912646,119.70894811630644
100.868,476.11361,792.256159788127,123.82664304252033
104.997,490.60197,792.5145745370108,127.94234971489747
109.121,509.92102,792.7728450180458,132.05307777846687
113.243,527.2273,793.0311588456849,136.1618175651103
117.361,531.45213,793.2893904826159,140.26657549717248
121.475,545.13557,793.5475396027674,144.36735155929455
125.586,561.03242,793.8056686901131,148.4651425236682
129.694,573.10599,794.063777540815,152.55994837880087
133.799,574.11174,794.3218659507979,156.6517691131957
137.9,597.25302,794.579870782607,160.73960792399978
141.997,617.77848,794.8377917088334,164.82346479591067
146.092,632.46685,795.095754431872,168.90533330149015
150.183,641.52231,795.3536327575252,172.98321984271936
154.27,655.60781,795.6114263575857,177.05712440433058
158.355,682.57341,795.8692611794701,181.12904056655526
162.436,705.71508,796.1270107824434,185.19697472376123
166.513,718.38876,796.3846748375038,189.2609268607263
170.588,723.61919,796.6423795372076,193.32289056532775
174.658,752.3937,796.8999348922513,197.37987542153877
178.726,756.61725,797.1575304785946,201.43487182259838
182.79,771.90991,797.4150394443564,205.48588615025218
186.851,789.81655,797.6725248841663,209.53391519593427
190.909,841.93141,797.9299865905014,213.57895894828437
194.963,891.22834,798.1873608485848,217.62002058683126
199.014,933.885,798.4447108753569,221.65809690683196
203.062,968.49119,798.7020364625633,225.6931878969544
207.107,947.1632,798.9593374017157,229.7252935458795
211.148,940.12172,799.2165498128718,233.75341702812705
215.185,894.84984,799.4736733638784,237.7775583286201
219.22,853.19898,799.7308352289939,241.79971106564128
223.251,820.60325,799.987907733134,245.8178815958217
227.279,776.9375,800.2449543788623,249.83306672330013
231.304,762.24758,800.5019749562341,253.84526643680312
235.325,747.15622,800.7589053373829,257.8534839033954
239.344,745.34621,801.0158731061665,261.85971275393416
243.358,743.53554,801.2726861755493,265.8609625083878
247.37,740.51706,801.5295362109952,269.86022362431896
251.378,734.47976,801.7862949604503,273.8555024408944
255.383,753.80035,802.0430262124192,277.8477957710848
259.385,744.14101,802.2997297552772,281.8371036036882
263.384,741.72666,802.5564053771677,285.8234259275026
267.379,749.97694,802.8129886193312,289.80576589969627
271.371,733.0719,803.0695434338113,293.78512033825103
275.36,738.30355,803.3260696080318,297.761489232004
279.346,749.5728,803.5825669291854,301.73487256979433
283.328,763.25609,803.8389707729242,305.70427350385495
287.308,784.38455,804.095409707416,309.67168569504076
291.284,799.67833,804.3517546553518,313.6351154577445
295.256,773.92039,804.6080052794329,317.59456277713656
299.226,756.61102,804.864290394184,321.55202132151584
303.192,723.81336,805.1204806744787,325.50549739789614
307.155,726.02711,805.3766404407011,329.45598783550025
311.115,722.60577,805.6327694781529,333.4034926232498
315.072,725.82542,805.888867571906,337.34801175006004
319.025,728.44146,806.1448697246998,341.2885483571439
322.976,728.2402,806.4009052441179,345.2270961276497
326.923,745.74681,806.6568443090966,349.161661353859
330.867,770.29522,806.9127514858711,353.0932408724432
334.808,813.1536,807.1686265583457,357.0218346723758
338.745,867.07985,807.4244043218816,360.94644588877037
342.68,916.98132,807.680214495289,364.86906821709806
346.611,942.93876,807.9359268438884,368.78770793742154
350.539,928.45043,808.1916061389622,372.70336189258995
354.464,913.35864,808.4472521632523,376.6160300716203
358.386,914.76955,808.7028646992724,380.5257124635296
362.304,928.65213,808.958378293347,384.43141219616496
366.22,958.23221,809.2139231581597,388.33512297970594
370.132,975.73749,809.4693685623125,392.234851079613
374.041,940.52629,809.7247795233524,396.13159334612754
377.947,873.52114,809.9801558226375,400.0253497683142
381.85,829.25176,810.2354972412994,403.91612033524206
385.75,815.57023,810.4908035602446,407.8039050359932
389.647,809.53522,810.7460745601534,411.68870385966056
393.54,821.60838,811.0012444549811,415.56951992443095
397.431,810.13574,811.2564441166056,419.4483469600039
401.318,814.16076,811.5115421506791,423.323191212487
405.202,846.56067,811.7666039034586,427.19504954190745
409.083,870.3091,812.0216291544773,431.06392193739293
412.961,940.33088,812.2766176830436,434.9298083880862
416.836,1064.47756,812.5315692682422,438.79270888313874
420.708,1189.42112,812.7864836889331,442.65262341170853
424.576,1176.54849,813.0412948263395,446.50855508240664
428.442,1069.91557,813.2961342123051,450.3624976443161
432.304,935.91012,813.5508697887933,454.2124573243063
436.164,874.53828,813.8056332527631,458.06042787629576
440.02,863.27128,814.0602923801423,461.90441552235734
443.873,851.8021,814.3149129286315,465.74541713466584
447.723,876.15106,814.569494675508,469.583432702442
451.57,935.10749,814.8240373978263,473.41846221491323
455.414,1088.83149,815.0785408724182,477.2505056613134
459.255,1306.12745,815.3330048758946,481.07956303089156
463.093,1337.11157,815.5874291846436,484.9056343128968
466.928,1129.27365,815.8418135748323,488.72871949659543
470.759,928.66987,816.0960914279193,492.5478216763284
474.588,841.94705,816.3503952671377,496.36493463003353
478.414,799.68932,816.6046585149621,500.1790614532616
482.236,780.17019,816.8588144277878,503.98920523681915
486.056,760.04624,817.1129957769679,507.79735976580605
489.872,755.01514,817.3670692580846,511.6015312313566
493.686,756.02388,817.6211678079616,515.4037134233545
497.496,758.64062,817.8751579558057,519.2019125281914
501.304,771.31594,818.1291728039604,522.9981223405108
505.108,770.30914,818.3830787152095,526.7903490419881
508.909,793.24739,818.6369421481127,530.5795895252201
512.708,842.74785,818.8908297270436,534.3668406875522
516.503,925.84885,819.1446075650736,538.1501087035803
520.295,1104.11911,819.3983422446248,541.9303904694874
524.085,1447.76137,819.6521005140049,545.7086828861753
527.871,2000.97576,819.9057482364684,549.482992121186
531.654,2582.64161,820.1593521183551,553.2543150742631
535.435,2691.62432,820.4129790319606,557.0236486498753
539.212,2277.71825,820.6664945906206,560.7889990085196
542.986,1721.54713,820.9199656246468,564.5513630534999
546.758,1353.19567,821.1734591303749,568.3117376928305
550.526,1138.31919,821.4268404711228,572.068129079987
554.291,1020.21265,821.6801766012268,575.821534121823
558.054,951.80362,821.9335346411141,579.5729497298894
561.813,894.05783,822.1867797039876,583.3203820506598
565.57,860.25696,822.4400463009835,587.0658249189538
569.323,841.14337,822.6931993785012,590.8072844765829
573.074,818.60794,822.9463736136388,594.5467545630571
576.821,805.92947,823.1994337859508,598.28224131553
580.566,785.19968,823.4525147385403,602.0157385782038
584.307,812.36289,823.7054810840766,605.7452524835857
588.046,804.11066,823.9584678317093,609.4727768805462
591.782,791.63441,824.211407151244,613.1973148295342
595.515,773.1202,824.4642988114404,616.9188663200957
599.245,741.12268,824.7171425808443,620.6374313417855
602.971,730.25649,824.9698703787781,624.3520129481047
606.695,735.28902,825.2226176297215,628.0646049995859
610.417,760.44497,825.4753842265585,631.7752074892899
614.135,829.8673,825.7280341139832,635.481826531197
617.85,989.83196,825.9806349501457,639.1854590521323
621.562,1123.42764,826.2331865023136,642.8861050416937
625.272,1086.40106,826.4857566365906,646.5847614325004
628.978,892.43771,826.7382089634117,650.2794343293187
632.682,773.11939,826.9906794892127,653.9721176089379
636.382,737.5087,827.2430316572337,657.6608173715273
640.08,734.49215,827.4954016402769,661.347527498499
643.775,710.54584,827.7477210219163,665.031251034199
647.467,697.66669,827.9999895679526,668.7119879682886
651.156,682.57273,828.2522070439762,672.3897382904307
654.842,682.37014,828.5043732153674,676.0645019903084
658.525,680.96213,828.7564878472964,679.7362790576062
662.206,672.5114,829.0086192209424,683.4060664365053
665.883,670.69976,829.2606301103596,687.0718702088716
669.558,677.33898,829.5126573542893,690.735684274542
673.23,690.21536,829.7646322008567,694.3965116687381
676.899,696.85598,830.0165544141978,698.0543523811838
680.565,703.29834,830.2684237582398,701.7092064016159
684.228,686.19362,830.5202399967014,705.3610737197714
687.888,664.45934,830.7720028930937,709.0099543254025
691.545,653.39208,831.0237122107194,712.6558482082636
695.2,650.77775,831.2754366048125,716.2997523228829
698.852,656.41296,831.5271070297102,719.9406696965478
702.501,656.81631,831.7787232481044,723.5786003190344
706.147,668.28436,832.0302850224806,727.213544180138
709.79,719.99735,832.2817921151174,730.8455012696477
713.43,845.55696,832.5332442880872,734.4744715773741
717.068,1073.53155,832.7847104462566,738.1014520646913
720.702,1154.21607,833.0360521071061,741.724448779426
724.334,992.85042,833.2874073599307,745.3454556556669
727.963,781.77368,833.53870682299,748.9634757116854
731.589,678.94822,833.7899502573382,752.5785089373222
735.213,634.07294,834.0412067760205,756.1915522996394
738.833,630.85154,834.2923374771416,759.8006118352115
742.451,626.82609,834.5434808673987,763.4076814894468
746.066,622.80192,834.7945673548436,767.0117642750106
749.678,608.11342,835.045596699519,770.6128601817877
753.287,593.82672,835.2965686612644,774.2109691996689
756.894,597.04622,835.5475526031189,777.8070883025096
760.498,593.62422,835.798478764881,781.4002204985043
764.098,586.58101,836.049277218603,784.9893687913718
767.697,583.76391,836.300156784882,788.5775241296255
771.292,589.19633,836.5509081609913,792.1616955446033
774.884,641.71733,836.80160079275,795.7428800124395
778.474,728.84663,837.0523042933883,799.3220745137553
782.061,760.24007,837.3029486501616,802.8982820500706
785.645,671.70153,837.553533621106,806.4715026113436
789.227,587.58683,837.8041289446312,810.042733181554
792.805,575.1097,838.0545944591482,813.6099797637704
796.381,570.68295,838.3050699251844,817.175236337115
799.954,572.29441,838.5554851194062,820.7375058975723
803.525,560.01733,838.8059099471978,824.2977854336017
807.092,556.59378,839.0562039106633,827.8540809393965
810.657,551.1617,839.3065071050952,831.4083864030042
814.219,554.38221,839.5567491386013,834.9597048159922
817.779,540.09414,839.8070000836286,838.5090331712868
821.335,539.08761,840.0571191058075,842.0543774542342
824.889,551.9668,840.3072466353689,845.5977316617855
828.44,555.38822,840.5573121117802,849.138098781095
831.989,538.28364,840.8073857746375,852.6764758095477
835.534,548.54627,841.0573264529363,856.2108687236729
839.077,547.13659,841.3072749120129,859.7432715292904
842.617,558.20525,841.5571604226166,863.2726872091702
846.155,557.8034,841.8070533915753,866.8001127651293
849.689,549.55027,842.0568123110935,870.3235541649063
853.221,543.10998,842.3065782817757,873.8450054231704
856.751,533.45131,842.556351183788,877.3644665333383
860.277,526.81152,842.8059892566381,880.8799434565695
863.801,532.6478,843.0556338524974,884.3934302141492
867.322,529.62971,843.3052139466741,887.9039297811842
870.841,529.83122,843.5548002388624,891.4124391672324
874.356,533.25228,843.8042506314955,894.9169643247194
877.869,532.84962,844.0537068123077,898.419499283723
881.38,514.73777,844.3031686602162,901.9200440376881
884.887,510.91472,844.552493824751,905.4166045325044
888.392,515.74267,844.8018242454274,908.91117480482
891.895,515.94492,845.0511598006358,912.4037548481081
895.394,519.567,845.3003578869067,915.8923506017184
898.891,545.12274,845.5495606956368,919.3789561088802
902.385,606.90051,845.7986967796612,922.8625743338387
905.877,664.04981,846.0478372575026,926.3442022971308
909.366,649.76176,846.2969105974505,929.8228429608378
912.852,583.75823,846.5459165505292,933.2984963151994
916.335,532.04263,846.7948548675708,936.7711623504515
919.816,517.75488,847.0437968347725,940.2418380915091
923.294,511.92024,847.2926707512588,943.7095264961337
926.77,508.49934,847.5415479871017,947.1752245914107
930.243,512.32249,847.7903567568228,950.6379353329598
933.713,505.48145,848.0390968103084,954.0976587110576
937.181,505.27879,848.2878396434799,957.555391756053
940.646,503.06588,848.5365133439045,961.0101374203347
944.108,516.74977,848.7851176609032,964.4618956942096
947.568,523.39019,849.0337242162917,967.911663611275
951.025,544.11789,849.2822609706425,971.3584441207123
954.479,562.02791,849.5307276727126,974.8022372128416
957.931,575.71321,849.7791960702558,978.2440399245173
961.38,548.54544,850.0275939968093,981.6828552017005
964.826,526.4092,850.2759212005698,985.1186830347482
968.27,523.59145,850.5242495552703,988.5525204637435
971.711,522.78565,850.7725067673751,991.9833704314534
975.15,533.65315,851.0207647946357,995.412229980125
978.586,532.44688,851.2689512587801,998.8381020504025
982.019,538.28263,851.5170659070744,1002.260986632665
985.45,540.09267,851.7651808233298,1005.681880772377
988.878,557.1975,852.0132235021272,1009.0997874070018
992.304,568.46561,852.261266111348,1012.5157035841492
995.727,602.27249,852.5092360607878,1015.9286322391526
999.147,643.52354,852.7571330967883,1019.3385733624325
1002.565,654.79301,853.0050295133688,1022.7465240048158
1005.98,637.48764,853.2528525931059,1026.1514870984665
1009.393,604.08453,853.5006747141399,1029.5544596963498
1012.803,576.92107,853.7484230742151,1032.9544447285089
1016.21,557.00138,853.9960974187553,1036.3514421854004
1019.615,560.42227,854.2437702521121,1039.7464491231924
1023.017,546.1328,854.4913686447436,1043.138468468769
1026.417,552.97348,854.7389651851707,1046.5284972804313
1029.814,551.76531,854.9864868589751,1049.915538482956
1033.209,563.23541,855.2340063388704,1053.3005891367716
1036.601,588.99347,855.4814505255396,1056.6826521645507
1039.99,615.15167,855.7288191631304,1060.0617275567963
1043.377,673.70795,855.9761850506744,1063.4388123771241
1046.761,727.63507,856.2234749614709,1066.8129095450654
1050.143,744.33783,856.4707617787891,1070.1850161263508
1053.522,733.67112,856.7179721909881,1073.5541350384115
1056.899,718.37954,856.9651791655984,1076.9212633491036
1060.273,693.42939,857.2123093060177,1080.2854039737597
1063.644,645.53722,857.4593623551295,1083.6465569029363
1067.013,616.55942,857.706411406883,1087.0057192076615
1070.38,600.05861,857.9534563307816,1090.362890881645
1073.743,573.49628,858.2003501243331,1093.7160777535005
1077.105,566.65534,858.4473128374581,1097.068271061468
1080.464,562.63015,858.6941974249914,1100.4174766331273
1083.82,562.22834,858.9410036287416,1103.763694459076
1087.174,567.86237,859.187804795644,1107.1079216166522
1090.525,558.80743,859.4345271465493,1110.4491610118191
1093.874,561.22193,859.6812441127599,1113.7884097240183
1097.22,580.5404,859.9278818300684,1117.1246706571415
1100.564,595.63184,860.1745138141637,1120.4589408927188
1103.905,601.46679,860.4210661157613,1123.7902233325776
1107.243,611.5279,860.6675384754272,1127.1185179673594
1110.579,631.45045,860.9140045354566,1130.4448218817402
1113.913,642.51802,861.160464163217,1133.7691350694965
1117.244,628.43169,861.4068432392252,1137.0904604283148
1120.573,622.19299,861.65321553244,1140.4097950459975
1123.899,625.61446,861.8995068382461,1143.7261418181733
1127.223,614.34547,862.1457910100681,1147.0404978347267
1130.544,619.37601,862.3919937581408,1150.351865989226
1133.862,615.75386,862.6381148216237,1153.6602462723774
1137.179,609.11375,862.8843024218348,1156.967632879478
1140.492,614.54763,863.1303337013336,1160.2710344974562
1143.804,613.13869,863.3764312495633,1163.5734424270192
1147.112,619.57779,863.6223719541757,1166.8718653489113
1150.418,610.72325,863.8683042479652,1170.1682974636162
1153.722,619.1754,864.1142279963616,1173.4627387649716
1157.024,633.86517,864.3601430646502,1176.7551892468102
1160.322,636.48074,864.6059002414277,1180.0436546839676
1163.619,657.00739,864.8517228790824,1183.3311263957148
1166.913,665.05607,865.0974617234272,1186.6156101558722
1170.204,672.50195,865.343116511709,1189.8971059552157
1173.493,682.16093,865.5887616891291,1193.1766108981383
1176.78,675.72335,865.834397120011,1196.4541249784993
1180.064,677.13371,866.0799478754336,1199.7286510745191
1183.345,678.94495,866.3254136919575,1203.00018917701
1186.624,695.64428,866.5708691840302,1206.2697363944683
1189.901,697.45408,866.8163142153372,1209.5372927207786
1193.175,703.89166,867.0616736863564,1212.8018610300983
1196.447,727.43412,867.3070223385218,1216.0644384340085
1199.717,753.79542,867.5523600350567,1219.3250249264033
1202.984,797.46037,867.7976115484398,1222.5826233784012
1206.248,846.55596,868.0427766140352,1225.8372337808628
1209.51,876.73777,868.2879301426603,1229.0898532494502
1212.77,929.25413,868.5330719969036,1232.3404817780838
1216.027,996.25792,868.7781267785186,1235.5881222338398
1219.282,1022.21278,869.0231695254092,1238.833771735454
1222.534,1041.72783,869.2681247539404,1242.0764331479888
1225.784,1032.07137,869.5130675867582,1245.317103592211
1229.032,1009.33493,869.7579978856751,1248.5557830620598
1232.277,994.44584,870.0028400389479,1251.7914744195796
1235.52,948.97171,870.2476692963809,1255.025174788588
1238.76,894.44233,870.4924099607981,1258.2558870291236
1241.998,849.37197,870.7371373667943,1261.4846082670338
1245.234,830.05614,870.9818513754091,1264.7113384962795
1248.467,838.10506,871.2264761612927,1267.9350805738875
1251.698,867.07962,871.4710871862682,1271.1568316287448
1254.926,913.55859,871.7156085395101,1274.3755945158769
1258.152,1012.75618,871.960115767678,1277.5923663661988
1261.375,1128.44682,872.2045328744605,1280.8061500327403
1264.597,1206.91421,872.4490113905413,1284.0189397903814
1267.815,1190.21469,872.6933234783503,1287.227744207252
1271.032,1100.68238,872.9376966952311,1290.435554703207
1274.246,1012.35501,873.18197897468,1293.6403769853362
1277.457,968.28843,873.4261700483735,1296.8422110446365
1280.667,954.60861,873.6704218722593,1300.0430511660295
1283.874,943.7438,873.914582123712,1303.2409030506142
1287.078,966.27954,874.1586505339122,1306.4357666894193
1290.28,1014.97205,874.402703073976,1309.628639223413
1293.48,1062.85814,874.6467396026445,1312.8195206466237
1296.678,1156.01402,874.8907599785172,1316.0084109530815
1299.873,1356.40256,875.1346876920192,1319.1943129838837
1303.065,1624.17057,875.378522473513,1322.3772267300878
1306.256,1922.89583,875.62241695983,1325.5591464925947
1309.444,2061.08384,875.86621814497,1328.7380779566038
1312.629,1891.9182,876.1099257588055,1331.9140211131923
1315.813,1581.12014,876.3536926936413,1335.0889702692307
1318.994,1362.63793,876.5973656870783,1338.260931103975
1322.172,1291.01327,876.8409444685009,1341.4299036085265
1325.349,1263.65358,877.0845821857686,1344.5978820957114
1328.522,1276.12504,877.3280485680023,1347.7618750770127
1331.694,1322.99995,877.57157360011,1350.9248740290955
1334.863,1408.30236,877.8150035921943,1354.084884621358
1338.03,1539.47932,878.0584151528966,1357.2429040097327
1341.195,1597.81891,878.3018081387149,1360.3989321883128
1344.357,1525.1956,878.5451054405304,1363.5519719844128
1347.517,1435.66914,878.7883837946109,1366.7030205569401
1350.675,1361.83489,879.0316430570093,1369.852077899999
1353.83,1322.80544,879.2748059900293,1372.9981468379722
1356.983,1313.74972,879.5179494576032,1376.1422245327292
1360.134,1335.47959,879.76107331534,1379.284310978389
1363.282,1361.43311,880.0041001969317,1382.4234089964057
1366.428,1393.62463,880.2471070940122,1385.5605157516056
1369.572,1401.4706,880.4900938617479,1388.6956312381235
1372.713,1419.17425,880.7329830051865,1391.8277582744902
1375.853,1420.98366,880.9759290364206,1394.9588912050715
1378.989,1449.55178,881.2186996320114,1398.0860384942634
1382.124,1464.43582,881.4615268247084,1401.2121916659546
1385.256,1449.55226,881.7042555552576,1404.335356358212
1388.386,1462.82886,881.9469631134141,1407.4565297427455
1391.514,1435.87157,882.1896493533238,1410.5757118137128
1394.639,1409.92164,882.4322364797229,1413.6919053828449
1397.762,1350.1662,882.6748019101976,1416.8061076248002
1400.883,1303.89307,882.9173454984556,1419.9183185337454
1404.002,1285.18438,883.1598670980658,1423.0285381038586
1407.118,1280.75894,883.4022887420725,1426.1357691430082
1410.232,1281.96491,883.6446880185658,1429.241008829743
1413.344,1280.3542,883.8870647806784,1432.344257158264
1416.453,1275.12398,884.1293409326429,1435.4445169335374
1419.56,1265.46636,884.3715941904683,1438.5427853370425
1422.665,1275.72956,884.6138244068514,1441.6390623629877
1425.768,1266.0713,884.856031434351,1444.733348005573
1428.868,1297.2557,885.0981370054043,1447.8246450659267
1431.966,1295.04435,885.340219006638,1450.9139507294155
1435.062,1295.04568,885.5822772901766,1454.0012649902583
1438.156,1302.89382,885.8243117080085,1457.0865878426785
1441.247,1289.21141,886.066243820711,1460.1689220839646
1444.336,1274.52378,886.3081516855968,1463.2492649033582
1447.423,1271.50603,886.550035154222,1466.3276162950974
1450.508,1270.50048,886.7918940780047,1469.4039762534164
1453.59,1267.07945,887.0336498456026,1472.477347571788
1456.67,1241.72715,887.2753806850808,1475.5487274433085
1459.748,1233.0786,887.5170864474281,1478.61811586224
1462.824,1219.59964,887.7587669834963,1481.6855128228324
1465.897,1209.74325,888.0003435099626,1484.7499211147372
1468.968,1203.90498,888.2418944257105,1487.8123379349147
1472.037,1201.89256,888.483419581163,1490.8727632776383
1475.104,1194.44765,888.7249188266072,1493.9311971371708
1478.169,1171.10768,888.9663920121952,1496.9876395077956
1481.231,1145.9599,889.2077601395438,1500.0410931744118
1484.291,1132.07777,889.4491018211553,1503.0925553387742
1487.349,1124.63388,889.6904169067544,1506.1420259951753
1490.404,1118.39688,889.9316262688789,1509.1885079256692
1493.458,1089.42189,890.1728876681851,1512.2339955480788
1496.509,1102.09894,890.4140429569861,1515.2764944312778
1499.558,1091.83679,890.6551709614989,1518.3170017818154
1502.605,1098.67909,890.8962715307532,1521.3555175939953
1505.649,1093.44688,891.1372653220811,1524.3910446451503
1508.692,1098.07548,891.3783105244477,1527.4255773626146
1511.732,1090.4293,891.6192485604314,1530.4571213057986
1514.77,1083.18947,891.8601584700681,1533.4866736860156
1517.806,1088.8223,892.1010401016957,1536.5142344975886
1520.839,1088.21817,892.3418138973484,1539.5388065131476
1523.871,1094.65837,892.5826384744961,1542.5623841695021
1526.9,1094.05534,892.8233548257949,1545.5829730166326
1529.927,1113.77723,893.0640422051986,1548.601570270597
1532.952,1119.41181,893.3047004603574,1551.6181759257438
1535.974,1099.49025,893.5452498179184,1554.6317927500088
1538.995,1086.00893,893.7858493240451,1557.6444151896512
1542.013,1074.74462,894.0263395412911,1560.6540487852474
1545.029,1053.8208,894.2667999376247,1563.661690757595
1548.043,1042.15205,894.5072303600107,1566.667341101058
1551.055,1038.53234,894.7476306552816,1569.6709998100116
1554.064,1028.27047,894.9879207915062,1572.6716696467863
1557.072,1026.66216,895.2282603295323,1575.6713450689276
1560.077,1022.23636,895.4684893155518,1578.668031605784
1563.08,1016.8032,895.7086874744804,1581.6627264837996
1566.081,1027.46711,895.9488546524699,1584.655429697371
1569.08,1057.65004,896.1889906955402,1587.6461412408974
1572.077,1135.11767,896.4290954495787,1590.6348611087776
1575.071,1240.54546,896.6690885808104,1593.6205920568302
1578.063,1340.941,896.9090500283859,1596.6043313161938
1581.053,1404.72006,897.14897963778,1599.5860788812827
1584.041,1342.95537,897.3888772543361,1602.5658347465153
1587.027,1214.18684,897.6287427232658,1605.5435989063144
1590.011,1076.36206,897.8685758896504,1608.519371355114
1592.993,1005.93954,898.1083765984388,1611.4931520873342
1595.972,974.14799,898.3480642138466,1614.463943852317
1598.949,960.0659,898.5877189751088,1617.4327438877472
1601.925,958.65842,898.8274212934148,1620.4005494350158
1604.898,937.53157,899.067009922906,1623.365365995594
1607.869,930.08284,899.3065652314845,1626.3281908099575
1610.837,943.56316,899.5460063675371,1629.2880266228376
1613.804,944.97236,899.7854945235564,1632.2468679272165
1616.769,953.62664,900.0249488907116,1635.203717468758
1619.731,967.1087,900.2642884878527,1638.157577989435
1622.691,992.66247,900.503593897401,1641.1094467343678
1625.649,1032.09952,900.7428649628381,1644.0593236980274
1628.605,1072.74318,900.9821015275164,1647.0072088748993
1631.559,1114.79585,901.2213034346584,1649.9531022594588
1634.511,1142.56162,901.4604705273575,1652.8970038461998
1637.461,1159.26262,901.6996026485774,1655.8389136296084
1640.409,1142.15927,901.938699641153,1658.7788316041767
1643.354,1122.24027,902.1776801783536,1661.7157605045593
1646.297,1090.45105,902.4166251860247,1664.650697583269
1649.239,1039.34352,902.6556157621932,1667.5846400964963
1652.178,998.29372,902.8944892810613,1670.515593516302
1655.115,975.15277,903.1333267973173,1673.4445550979658
1658.05,956.63848,903.3721281530085,1676.3715248360104
1660.983,945.77116,903.6108931900537,1679.2965027249518
1663.914,963.27774,903.8496217502438,1682.2194887593212
1666.843,1005.53445,904.0883136752411,1685.1404829336414
1669.769,1078.37241,904.3268872492808,1688.058487974381
1672.694,1180.58076,904.5655053852496,1690.9754984113008
1675.616,1273.53572,904.8040047667122,1693.8895197018987
1678.537,1334.70166,905.0425484787506,1696.8025463795825
1681.455,1312.97226,905.2809730322056,1699.7125838982179
1684.371,1245.77247,905.5193599114904,1702.6206295222482
1687.286,1136.92257,905.7577907733913,1705.527680519747
1690.198,1043.1638,905.9961018696093,1708.4317423391415
1693.108,983.80734,906.234374813549,1711.3338122476137
1696.016,938.53418,906.4726094455859,1714.2338902397273
1698.922,897.08458,906.7108056059686,1717.131976310053
1701.825,862.47617,906.9488811030812,1720.027073175126
1704.727,844.16606,907.1869997972427,1722.9211753847126
1707.627,825.65173,907.4250795397343,1725.8132856562522
1710.525,820.6205,907.6631201702999,1728.703403984335
1713.42,797.28043,907.9010393241887,1731.5905330818857
1716.314,789.83479,908.1390012064584,1734.4766675059243
1719.205,766.09008,908.3768412045729,1737.359812686828
1722.095,753.01103,908.6147236959952,1740.2419631852183
1724.982,741.94387,908.8524838952651,1743.1211244278818
1727.867,739.1265,909.0902039320614,1745.9982936928884
1730.751,733.49189,909.3279661086374,1748.8744682619115
1733.632,721.6199,909.5656053801009,1751.7476535563558
1736.511,715.78426,909.8032040052782,1754.6188468569994
1739.389,712.16116,910.0408444156171,1757.4890454482108
1742.264,710.34981,910.2783613067246,1760.3562547460326
1745.137,707.13079,910.5158370666107,1763.2214720339468
1748.008,710.14896,910.7532715333798,1766.0846973065777
1750.877,708.13564,910.9906645450134,1768.9459305585824
1753.744,705.92203,911.2280159393674,1771.8051717845944
1756.609,709.74598,911.4653255541749,1774.662420979266
1759.472,703.91206,911.702593227045,1777.51767813725
1762.333,697.26973,911.9398187954628,1780.3709432531994
1765.192,697.47052,912.1770020967904,1783.2222163217775
1768.049,684.79284,912.414142968266,1786.0714973376435
1770.904,697.27024,912.651241247005,1788.9187862954675
1773.757,700.08919,912.8882967699999,1791.7640831899198
1776.608,692.04013,913.1253093741194,1794.6073880156723
1779.457,688.01565,913.3622788961105,1797.448700767406
1782.304,687.81371,913.5992051725963,1800.2880214397996
1785.148,673.32418,913.8360047555892,1803.1243527235501
1787.991,671.11044,914.072844007197,1805.9596892204436
1790.832,665.47617,914.3096395224333,1808.7930336220656
1793.671,666.28134,914.546391137432,1811.6243859231124
1796.508,661.25133,914.7830986882062,1814.4537461182888
1799.343,654.61084,915.0197620106463,1817.2811142022952
1802.176,660.84963,915.2563809405211,1820.1064901698385
1805.007,665.07554,915.4929553134785,1822.9298740156341
1807.835,658.83618,915.7294013344875,1825.750268423347
1810.662,655.61659,915.9658860567919,1828.56966800891
1813.487,637.10296,916.2023257283901,1831.387075456885
1816.31,644.14527,916.4387201844447,1834.2024907619923
1819.131,649.17648,916.6750692599974,1837.0159139189627
1821.95,644.14667,916.9113727899697,1839.8273449225355
1824.767,645.95836,917.147630609162,1842.6367837674416
1827.582,637.50708,917.3838425522546,1845.4442304484267
1830.395,639.31757,917.6200084538075,1848.2496849602348
1833.206,630.86489,917.8561281482606,1851.0531472976122
1836.016,627.84657,918.0922855333605,1853.8556147751394
1838.823,631.87132,918.3283123597562,1856.6550927487945
1841.628,608.72773,918.5642924816551,1859.4525785322887
1844.431,616.17347,918.8002257330189,1862.2480721203876
1847.232,617.18002,919.0361119476885,1865.041573507855
1850.032,607.72197,919.2720352393641,1867.8340800136539
1852.829,604.50252,919.5078269250089,1870.6235969850513
1855.624,595.84867,919.7435710747725,1873.4111217401417
1858.418,580.75428,919.9793519319644,1876.1976516005097
1861.209,580.35212,920.2150005532661,1878.9811919082076
1863.999,583.17045,920.4506856350351,1881.7637373124946
1866.787,591.42156,920.6863226003455,1884.5442904813644
1869.572,579.75034,920.9218266988058,1887.3218540793364
1872.356,584.3791,921.157366886431,1890.098422760887
1875.138,577.53709,921.3928584559378,1892.872999191416
1877.917,578.54344,921.6282165265526,1895.6445860328613
1880.695,573.5115,921.8636103139884,1898.415177944907
1883.471,565.25981,922.0989549805867,1901.1837775903625
1886.245,566.66904,922.3342503585401,1903.9503849640453
1889.017,566.86992,922.5694962799241,1906.7150000607746
1891.787,574.31685,922.8046925766977,1909.4776228753813
1894.556,572.30545,923.0399240541657,1912.239250740737
1897.322,569.28665,923.2750206404903,1914.9978889764398
1900.086,569.28683,923.5100670973816,1917.7545349145114
1902.849,568.68413,923.7451483599084,1920.510185890428
1905.609,563.25052,923.9800940956623,1923.2628472186245
1908.368,565.86562,924.2150743864457,1926.0145135760747
1911.124,566.26824,924.4499187261089,1928.7631902737812
1913.879,555.80398,924.6847973697385,1931.510871992165
1916.632,548.55941,924.9196249579185,1934.2565613837226
1919.383,542.32099,925.1544013214514,1937.000258443321
1922.132,540.7114,925.3891262910237,1939.7419631658254
1924.879,540.51042,925.6237996972068,1942.4816755460988
1927.624,535.47927,925.858421370457,1945.2193955790133
1930.367,531.25369,926.0929911411164,1947.955123259449
1933.109,517.16618,926.3275944202974,1950.689855932336
1935.848,508.91498,926.5620599197423,1953.421598893299
1938.586,511.33058,926.7965586746418,1956.1523468381893
1941.321,503.68403,927.0309192228699,1958.880105059227
1944.055,511.93525,927.2653127730334,1961.6068682556768
1946.787,506.09979,927.4996534870849,1964.3316390706736
1949.517,489.79929,927.7339411945698,1967.0544174991196
1952.245,488.18934,927.96817572492,1969.7752035359147
1954.971,485.37235,928.2023569074547,1972.4939971759695
1957.695,493.62313,928.4364845713785,1975.2107984141926
1960.418,478.53019,928.6706445608862,1977.926604604049
1963.138,473.90211,928.9046647181814,1980.6394210242045
1965.857,470.68208,929.1387169457821,1983.3512423875275
1968.574,458.40637,929.3727150573426,1986.0610713303902
1971.289,462.02868,929.6066588815065,1988.7689078477208
1974.002,449.14945,929.8405482468053,1991.474751934447
1976.713,449.14934,930.0743829816582,1994.178603585508
1979.422,440.69668,930.3081629143722,1996.8804627958407
1982.13,435.66581,930.5419742358316,1999.5813269257012
1984.835,425.80498,930.7756440921937,2002.279201240248
1987.539,423.79259,931.0093450802776,2004.9760804659052
1990.241,411.51696,931.2429906652568,2007.6709672323068
1992.941,410.51065,931.4765806748825,2010.3638615344096
1995.639,408.49764,931.7101149367943,2013.0547633671697
1998.335,402.66162,931.9435932785217,2015.743672725552
2001.029,397.42963,932.1770155274829,2018.4305896045257
2003.722,394.81316,932.410468221433,2021.1165113710913
2006.412,390.58748,932.643777810146,2023.7994432769929
2009.101,379.71982,932.8771175850933,2026.4813800621143
2011.788,383.14112,933.110400662805,2029.161324349402
2014.473,377.70734,933.3436268701486,2031.8392761338346
2017.156,372.67686,933.5767960338826,2034.515235410405
2019.838,372.4752,933.8099949520368,2037.1901995511569
2022.517,374.28646,934.0430495518767,2039.862173797806
2025.195,364.42509,934.276133646101,2042.5331529002926
2027.871,360.1992,934.5091600896495,2045.2021394765682
2030.545,365.02938,934.7421287087336,2047.869133521632
2033.217,359.59546,934.9750393294562,2050.5341350304902
2035.887,361.20529,935.2078917778115,2053.197143998158
2038.556,353.55799,935.4407731556103,2055.8591578025316
2041.223,352.95418,935.6735960997336,2058.519179057407
2043.887,347.72171,935.90627307288,2061.17621037326
2046.55,351.74662,936.1389785830283,2063.8322465133756
2049.212,343.49541,936.3717125861981,2066.487287475263
2051.871,341.88572,936.6043000512279,2069.1393384823896
2054.529,338.26334,936.8369157469214,2071.790394303011
2057.184,340.47662,937.0693844677821,2074.438460157287
2059.838,329.81056,937.3018811565182,2077.085530816792
2062.49,332.62801,937.5343181009711,2079.730608888718
2065.14,327.59711,937.7666951259484,2082.3736943681142
2067.789,325.3828,937.9990998109108,2085.015784642017
2070.436,328.40184,938.2314443127821,2087.655882315146
2073.08,324.77934,938.4636406141866,2090.292989988922
2075.723,321.35818,938.6958641796792,2092.929102444853
2078.365,316.12556,938.9281149641874,2095.564219680474
2081.004,316.52811,939.1602169775025,2098.1963469011166
2083.642,310.49044,939.3923459451796,2100.827478893231
2086.277,307.67277,939.624325702567,2103.4556208588697
2088.911,308.88054,939.8563321492386,2106.0827675877817
2091.544,310.08824,940.0883652396311,2108.7089190775027
2094.174,296.80569,940.3202485474047,2111.33208052518
2096.803,300.42786,940.5521582332138,2113.954246725474
2099.429,302.03802,940.783917696226,2116.5734228722686
2102.054,298.21434,941.0157032711663,2119.1916037635096
2104.678,296.00071,941.2475149119828,2121.8087893967468
2107.299,292.37802,941.4791757560814,2124.4229849609587
2109.919,287.34707,941.7108623993448,2127.036185259009
2112.537,291.57334,941.942486300035,2129.647392882536
2115.153,281.91318,942.1740472809511,2132.2566078266454
2117.767,282.51683,942.4055451647896,2134.86383008646
2120.379,280.70545,942.6369797741432,2137.4690596570968
2122.99,280.50407,942.8684396012576,2140.0732939428485
2125.599,277.6866,943.0998358859463,2142.6755355312953
2128.206,272.25295,943.3311684504889,2145.2757844175667
2130.812,275.47322,943.5625259176314,2147.8750380083993
2133.415,273.66158,943.7937305519077,2150.4713014765316
2136.017,268.63025,944.0249598200365,2153.0665696411174
2138.617,269.6368,944.2561247433163,2155.659845085704
2141.215,260.37898,944.4872251435102,2158.251127805423
2143.812,261.58665,944.7183498608978,2160.841415211085
2146.407,260.5803,944.9494097856503,2163.429709883804
2149.0,260.78148,945.1804047392222,2166.016011818737
2151.591,255.54863,945.4113345429663,2168.6003210110316
2154.181,257.56158,945.6422882112469,2171.1836348747456
2156.768,256.35362,945.8730872226067,2173.7639585680786
2159.354,258.36645,946.1039098279484,2176.3432869247663
2161.939,256.15253,946.3347559791085,2178.9216199424063
2164.521,249.10893,946.5654468925513,2181.4969627743735
2167.102,259.57413,946.7961610806672,2184.0713102592435
2169.681,251.72492,947.0268090400914,2186.6436649709062
2172.258,252.73148,947.2573905913623,2189.214026904541
2174.833,252.12765,947.4879055549183,2191.782396055338
2177.407,251.32249,947.718443336936,2194.3497698446004
2179.979,248.10236,947.9489142590992,2196.9151508430177
2182.549,250.71898,948.1793181415419,2199.4785390457796
2185.118,246.29133,948.4097445210951,2202.040931876606
2187.685,244.4797,948.6401035882025,2204.6013319037843
2190.25,241.46093,948.8703951626954,2207.159739122525
2192.813,245.28497,949.1006190643064,2209.7161535280293
2195.375,239.24715,949.330865004109,2212.27157254723
2197.935,246.49249,949.5610429975194,2214.8249987452227
2200.493,243.27259,949.7911528639693,2217.376432117233
2203.049,238.24118,950.0211944227921,2219.92587265848
2205.604,242.66855,950.2512575593372,2222.4743177990854
2208.157,240.25358,950.4812521139642,2225.020770100982
2210.708,239.44866,950.7111779057062,2227.5652295593914
2213.257,240.65621,950.941034753501,2230.1076961695594
2215.805,236.42961,951.1709127170056,2232.649167364792
2218.351,237.436,951.4007214614938,2235.1886457038495
2220.895,239.04618,951.6304608056048,2237.726131181976
2223.438,237.03347,951.8602209397553,2240.262621234872
2225.979,233.00862,952.089911397884,2242.7971184189246
2228.518,227.37338,952.3195319983328,2245.329622729386
2231.056,231.59972,952.5491730623066,2247.8611316043352
2233.591,230.1909,952.7786534457232,2250.389650154188
2236.125,229.98958,953.0081540162494,2252.917173260634
2238.658,228.78233,953.2376747229301,2255.4437009213148
2241.188,231.1972,953.4670341592102,2257.967238241908
2243.717,228.78192,953.6964134546581,2260.4897801088555
2246.245,225.56177,953.9258125580506,2263.0113265197983
2248.77,225.15951,954.1550498003098,2265.5298825757027
2251.294,223.75086,954.3843065729573,2268.0474431677353
2253.816,223.75081,954.6134919281878,2270.563010843636
2256.337,218.51817,954.8426966232952,2273.07758304939
2258.855,221.33576,955.0717386391174,2275.5891648796874
2261.372,217.71305,955.3007997164985,2278.0997512319923
2263.888,215.49932,955.5298798035772,2280.6093421039586
2266.402,217.5119,955.7588877335038,2283.1169400394147
2268.914,216.10286,955.9878233230623,2285.6225450336615
2271.424,211.27287,956.2166863889443,2288.126157082007
2273.932,209.66286,956.4454767477484,2290.6277761797687
2276.439,213.28532,956.6742855057942,2293.1283997792116
2278.945,214.49317,956.9031126106871,2295.6280278779977
2281.448,212.883,957.1317752553416,2298.124665556765
2283.95,213.48687,957.3604559668372,2300.6203077270757
2286.45,207.65017,957.5890632277292,2303.113956926535
2288.949,213.08415,957.8176883625601,2305.606610611315
2291.446,205.43629,958.046239766223,2308.0972713174633
2293.941,205.4364,958.2747172545489,2310.5859390403134
2296.435,210.46807,958.5032122830447,2313.0736112383834
2298.927,207.04638,958.7316331150822,2315.5592904453924
2301.417,203.62529,958.9599795662089,2318.04297665669
2303.905,207.4492,959.1882514518805,2320.5246698676215
2306.392,209.26053,959.4165404022405,2323.0053675398212
2308.877,208.45539,959.6447545052816,2325.484072203919
2311.361,201.61278,959.8729854784809,2327.9617813230966
2313.843,206.24155,960.1011413221331,2330.4374974264324
2316.323,203.02141,960.3292218512213,2332.9112205092974
2318.802,203.02165,960.5573189142435,2335.3839480372026
2321.279,210.66937,960.7853403799234,2337.8546825369212
2323.754,198.19134,961.0132860629626,2340.3234240038205
2326.228,206.04034,961.2412479428991,2342.7911699057436
2328.7,199.3989,961.4691337568682,2345.256922767149
2331.17,201.00875,961.696943319294,2347.720682583422
2333.639,199.80158,961.9247687407689,2350.183446824714
2336.106,201.41119,962.1525176268273,2352.6442180131894
2338.571,203.8266,962.3801897916153,2355.1029961442396
2341.035,193.96499,962.6078774767967,2357.560778690328
2343.497,193.96487,962.8354881562907,2360.0165681713215
2345.957,193.96486,963.0630216439674,2362.470364582624
2348.416,192.35471,963.2905703125763,2364.9231653990046
2350.873,194.77014,963.5180415044089,2367.373973138039
2353.329,195.17245,963.7455276796201,2369.823785276033
2355.783,189.53735,963.9729360927386,2372.271604329035
2358.235,193.15993,964.2002665571729,2374.7174302924614
2360.686,195.57509,964.4276116642042,2377.1622606449223
2363.135,188.32976,964.6548785366963,2379.6050979001766
2365.582,193.16016,964.8820669877854,2382.0459420536536
2368.028,184.50606,965.1092697398909,2384.4857905862555
2370.472,190.34242,965.3363937842024,2386.923646009466
2372.915,185.31086,965.5635319305783,2389.3605058057133
2375.355,183.49975,965.7904980416072,2391.7943749972087
2377.795,187.52488,966.0175710523915,2394.2282460426572
2380.232,182.49357,966.2444716531047,2396.6591264742424
2382.668,178.87072,966.4713858693017,2399.089011265196
2385.103,180.27959,966.6983136448446,2401.5179004132456
2387.536,178.87072,966.9251616636247,2403.944796424569
2389.967,173.43663,967.1519297378705,2406.3696992946293
2392.397,175.85168,967.3787110272689,2408.7936065119407
2394.824,165.78871,967.6053186926027,2411.214523086603
2397.251,177.4617,967.8320327199444,2413.63544149553
2399.676,172.02782,968.0586662260882,2416.0543667480742
2402.099,169.21008,968.2852190228128,2418.4712988397
2404.52,169.0087,968.5116909218148,2420.8862377658866
2406.94,165.99002,968.7381753452242,2423.3001810197
2409.359,168.20396,968.9646722360657,2425.7131285988817
2411.775,171.22268,969.190994140866,2428.1230855029817
2414.191,168.40522,969.4174219655881,2430.5330442247746
2416.604,169.41124,969.6436744268556,2432.9400122624656
2419.016,166.39245,969.8699388637741,2435.345984611989
2421.426,164.58133,970.096121345368,2437.7499637689957
2423.835,166.39255,970.3223156000461,2440.1529472318334
2426.242,166.19146,970.5484276089751,2442.553937494654
2428.648,165.78868,970.7745511880901,2444.9539320573117
2431.052,163.77625,971.0005922306872,2447.3519334124626
2433.454,164.38014,971.2265505473997,2449.7479415556186
2435.855,166.79512,971.4525200854638,2452.1429539888863
2438.255,161.56255,971.6785007869133,2454.536970710019
2440.652,165.78869,971.9043041448617,2456.9279967006114
2443.048,165.38622,972.1301183745687,2459.318026971605
2445.443,161.76365,972.3559434178133,2461.707061520769
2447.836,164.5816,972.5816848602925,2464.0941028355383
2450.227,164.98394,972.8073425120283,2466.479150911448
2452.617,165.38639,973.0330106266983,2468.8632032558485
2455.005,161.56242,973.2585946581453,2471.245262353945
2457.392,158.54374,973.4841889476158,2473.6263257145756
2459.777,162.97151,973.7096988610456,2476.005395821482
2462.16,164.98399,973.9351242080248,2478.3824726701937
2464.542,156.73237,974.1605594611648,2480.7585537718005
2466.923,166.39287,974.3860045615163,2483.133639124074
2469.301,156.53115,974.6112699483102,2485.50573369077
2471.679,155.32361,974.8366396834017,2487.877830018477
2474.054,159.34891,975.0618293233433,2490.2469355517233
2476.428,160.55623,975.2870283105972,2492.615045322315
2478.801,162.16642,975.5122365858042,2494.982159328039
2481.172,156.93362,975.7373591192408,2497.3472800459663
2483.541,154.92111,975.9623957197263,2499.7104074716704
2485.909,157.94002,976.1874412540654,2502.072539122915
2488.275,161.56258,976.4124005606197,2504.432677474565
2490.64,154.31728,976.6373685938071,2506.791820045856
2493.003,151.29826,976.8622501040423,2509.1489693101935
2495.365,155.12222,977.0871401333685,2511.5051227882864
2497.725,153.10958,977.3119433442432,2513.859282952072
2500.084,153.31107,977.5367548663443,2516.2124473237354
2502.441,150.89583,977.761479274163,2518.5636183737424
2504.796,154.31734,977.9861163757591,2520.912796097699
2507.15,155.72613,978.2107614322688,2523.2609780199955
2509.503,153.31123,978.4354143833011,2525.608164138434
2511.853,152.30478,978.6598840864254,2527.952359390299
2514.203,147.67569,978.8844569723045,2530.296556361984
2516.55,149.28593,979.1088462256434,2532.6377624583183
2518.897,147.87684,979.333338540395,2534.978970270083
2521.241,145.26069,979.5576468376377,2537.3171871977324
2523.585,143.44933,979.7820580746411,2539.655405836435
2525.926,143.65062,980.0062849088315,2541.990633582263
2528.266,139.62544,980.2305187124393,2544.3248654993986
2530.605,140.43036,980.4547594243596,2546.6581015856573
2532.942,137.61279,980.6789110471963,2548.989344302033
2535.277,136.40504,980.9029733879269,2551.3185936441537
2537.611,137.21018,981.1270422775087,2553.646847145944
2539.944,138.82027,981.351117654528,2555.974104805226
2542.275,142.44291,981.5751033455776,2558.299369080086
2544.604,139.22285,981.798999157304,2560.6226399661673
2546.932,140.22908,982.0229010960518,2562.944915000308
2549.259,140.43041,982.2468091000994,2565.2661941803353
2551.583,133.18502,982.4705305323529,2567.5844824188084
2553.907,135.60018,982.6943540620709,2569.9027723392824
2556.229,136.00242,982.9180870080754,2572.219068853604
2558.549,132.17868,983.1417291765206,2574.533371957433
2560.868,132.98374,983.3653768368791,2576.8466791919627
2563.185,126.14076,983.5889334196285,2579.157993008777
2565.501,127.75094,983.8124952819587,2581.4683109505204
2567.815,131.17234,984.035965766312,2583.776635467342
2570.128,127.95208,984.259441317602,2586.0839641033276
2572.439,132.17868,984.4828251902286,2588.3892993071877
2574.749,129.96479,984.7062139168365,2590.693638624454
2577.057,128.95851,984.9295106637788,2592.995984502405
2579.364,128.1534,985.1528120514366,2595.2973344880133
2581.669,123.1219,985.3760211581102,2597.5966910271227
2583.973,128.95848,985.5992346919237,2599.8950516681502
2586.275,122.51809,985.82235564312,2602.191418855505
2588.576,125.53704,986.0454808075709,2604.4867901390407
2590.875,122.5182,986.2685130874578,2606.7801679617432
2593.173,122.51814,986.4915493664059,2609.072549874898
2595.469,123.72574,986.7144924585299,2611.362938320062
2597.764,121.51192,986.9374393352145,2613.6523308499654
2600.058,122.92073,987.1603899330607,2615.9407274624605
2602.349,125.13458,987.3831496795427,2618.226133038518
2604.64,121.31064,987.6060101427859,2620.5115402491924
2606.929,120.70674,987.8287767061528,2622.794953974739
2609.216,121.91446,988.0514491740387,2625.0763742108893
2611.502,114.06509,988.2741247811529,2627.3567985146597
2613.786,120.50533,988.4967059892836,2629.6352293219165
2616.069,118.09042,988.7192901209174,2631.912664191104
2618.351,119.70046,988.9418771120529,2634.189103120092
2620.631,115.07139,989.1643692923402,2636.463548542614
2622.909,115.07139,989.386766465707,2638.7360004544103
2625.186,124.73207,989.6091661302255,2641.0074564167858
2627.462,114.06529,989.8315682215938,2643.2779164276085
2629.736,113.864,990.0538748932606,2645.5463829177856
2632.008,112.85757,990.2760859488443,2647.8128558830663
2634.28,111.44885,990.4983969321527,2650.079330455983
2636.549,116.88275,990.720514168178,2652.3428139292528
2638.817,110.84505,990.9426332445639,2654.605301436121
2641.084,110.24122,991.1647540965596,2656.8667929744643
2643.349,109.6374,991.3867786132844,2659.126290970959
2645.613,110.04001,991.6088046879406,2661.384792993287
2647.876,110.44252,991.8308322555703,2663.6422990393407
2650.136,106.61852,992.0526648950691,2665.896813960349
2652.396,108.22862,992.2745969434569,2668.1513304720725
2654.654,106.2161,992.4964319354987,2670.403853425043
2656.91,108.22874,992.7181696739636,2672.6543828150425
2659.165,104.60605,992.9399083155412,2674.903916213996
2661.419,101.7884,993.1616477948265,2677.1524536197962
2663.671,107.22238,993.3832896043618,2679.398997452798
2665.922,105.00852,993.604932032595,2681.6445452870394
2668.171,104.4048,993.8264764839241,2683.8880995414743
2670.419,102.39211,994.0480213346445,2686.1306577915448
2672.665,101.78835,994.2694679010102,2688.3712224548094
2674.91,99.57442,994.4909146471648,2690.6107911081135
2677.154,104.40478,994.7123615072018,2692.849363749362
2679.396,101.78825,994.9337096651503,2695.0859427940227
2681.636,99.57453,995.1549589229478,2697.3205282379045
2683.875,104.80717,995.376207920455,2699.554117660658
2686.113,100.98326,995.5974565914719,2701.7867110601956
2688.349,99.17182,995.8186059437215,2704.0173108491936
2690.584,100.17819,996.0397547488592,2706.2469146094027
2692.818,100.78204,996.2609029404791,2708.475522338739
2695.049,99.57444,996.4818523360086,2710.701138860486
2697.28,96.35425,996.7028999109923,2712.9267569324184
2699.509,93.13413,996.9238474387096,2715.1503813771255
2701.737,95.95176,997.1447939105065,2717.3730097798425
2703.963,93.73789,997.3656400255177,2719.5936445484044
2706.188,96.15316,997.586484862976,2721.8132832694314
2708.411,92.32914,997.80722903384,2724.030928349373
2710.633,94.54301,998.0279717052288,2726.247577376241
2712.853,95.95182,998.2486133999264,2728.4622327551024
2715.073,94.14049,998.469352827124,2730.6768896689123
2717.29,94.74433,998.6898915570696,2732.888555334945
2719.506,89.91397,998.9104283428389,2735.099224936855
2721.721,94.14058,999.1309631170938,2737.3088984725687
2723.935,92.93287,999.3514958124372,2739.5175759400177
2726.147,90.3166,999.5719266870954,2741.724259740139
2728.357,92.93299,999.792255541451,2743.928949868796
2730.566,91.92665,1000.012581938171,2746.1326439202426
2732.774,92.53039,1000.2329058095696,2748.3353418924094
2734.98,92.12795,1000.4531272374899,2750.536046183488
2737.185,91.72538,1000.67334591646,2752.7357543897915
2739.389,87.90149,1000.8935617785925,2754.9344665092644
2741.591,89.71282,1001.113674773426,2757.1311849380386
2743.792,91.72545,1001.3337847273743,2759.3269072744984
2745.991,93.9393,1001.5537915017653,2761.520635913403
2748.189,94.54308,1001.7737950109399,2763.7133684545115
2750.385,88.70654,1001.9936950280199,2765.904107291223
2752.58,91.32296,1002.21359155527,2768.0938500246702
2754.774,93.73814,1002.4334845243139,2770.2825966527985
2756.966,88.50523,1002.6532735759613,2772.469349566966
2759.157,85.48578,1002.8730588443736,2774.6551063703546
2761.346,93.33546,1003.0927398821452,2776.838869452956
2763.534,89.51158,1003.3124169113722,2779.0216364193293
2765.721,90.51789,1003.5320898633353,2781.203407267426
2767.906,89.91407,1003.751658158305,2783.383184385205
2770.09,92.12793,1003.9712221502878,2785.5619653792623
2772.273,88.10273,1004.1907817703653,2787.7397502475665
2774.454,92.12799,1004.410236306465,2789.915541376027
2776.634,89.91398,1004.6296862445247,2792.0903363732978
2778.812,88.90787,1004.849030784239,2794.2631376239447
2780.989,96.3545,1005.0683704995009,2796.434942737968
2783.164,91.52417,1005.287604501778,2798.6047540985887
2785.339,88.3039,1005.5069343162337,2800.774566932606
2787.511,88.1028,1005.7260572835097,2802.9413883916905
2789.683,89.51152,1005.945275924105,2805.10821132011
2791.853,90.51791,1006.1643883096974,2807.2730404829495
2794.021,87.49899,1006.383394238534,2809.435875876145
2796.189,90.92042,1006.6024956759445,2811.598712733278
2798.354,90.11539,1006.8213893014647,2813.7585581958833
2800.519,87.70022,1007.0403782960227,2815.9184051183797
2802.682,88.50534,1007.2592602904406,2818.076258259098
2804.844,82.46745,1007.4781363424125,2820.233115235504
2807.004,86.49271,1007.6969050780856,2822.387978423397
2809.163,84.27885,1007.9156676431317,2824.541845441596
2811.321,84.68133,1008.1344239674175,2826.694716288089
2813.477,82.06491,1008.3530725447157,2828.845593336657
2815.632,88.3041,1008.5717146526696,2830.995474208144
2817.785,81.86376,1008.7902486968012,2833.1433612749997
2819.938,80.65612,1009.0088776109411,2835.2912497856223
2822.088,85.08391,1009.2272966200017,2837.436146859366
2824.238,86.69392,1009.445810358075,2839.5810453728614
2826.386,83.07133,1009.6642154859632,2841.7239500696646
2828.533,88.30402,1009.8826135452738,2843.865858574654
2830.678,83.87631,1010.1009026767489,2846.0057732562664
2832.822,81.46115,1010.3191845099941,2848.1446917407243
2834.965,82.46753,1010.5374589741496,2850.2826140260195
2837.106,81.86369,1010.7556240775613,2852.418542478592
2839.246,81.86369,1010.9737815818341,2854.5534747266715
2841.384,76.42965,1011.1918294070507,2856.68641313537
2843.521,81.86362,1011.4098694028127,2858.818355334241
2845.657,83.47371,1011.6279014979285,2860.9493013212973
2847.792,80.25357,1011.8459256211496,2863.079251094543
2849.925,83.27249,1012.0638395160229,2865.2072070164286
2852.057,81.25988,1012.281745208163,2867.3341667191894
2854.187,84.68136,1012.4995403528418,2869.4591325639526
2856.316,83.27252,1012.7173270636849,2871.5831021842846
2858.444,84.48008,1012.9351052691137,2873.7060755781927
2860.57,81.46111,1013.152772491994,2875.827055104829
2862.696,88.70648,1013.3705334275385,2877.948036039274
2864.819,85.285,1013.5880806552597,2880.0660254609566
2866.942,80.6559,1013.8057214520459,2882.1840162864833
2869.063,82.46724,1014.0232507146251,2884.3000132328275
2871.182,88.50512,1014.2406682388084,2886.414016296029
2873.301,89.51145,1014.4581791602412,2888.528020757793
2875.418,92.5304,1014.6755781110072,2890.640031331137
2877.534,89.71284,1014.8929676448287,2892.751045656253
2879.648,92.32923,1015.1102448872936,2894.8600660863644
2881.761,97.56204,1015.3275124801564,2896.9680902629807
2883.873,97.36079,1015.5447703510712,2899.0751181841324
2885.983,97.15955,1015.761915493196,2901.18015220106
2888.092,96.95824,1015.9790506803304,2903.2841899572686
2890.2,96.15309,1016.196175839937,2905.387231450782
2892.306,98.76964,1016.4131878327429,2907.488279030887
2894.411,102.79487,1016.630189564595,2909.5883303430473
2896.515,97.15948,1016.8471809627673,2911.6873853853076
2898.617,97.36072,1017.0640587555501,2913.784446504975
2900.718,100.9835,1017.2809259808456,2915.880511349502
2902.818,104.60619,1017.4977825657372,2917.9755799169247
2904.917,105.20991,1017.7146284372528,2920.0696522052813
2907.014,111.44893,1017.9313601470863,2922.1617305592777
2909.11,113.86416,1018.1480809092304,2924.2528126289862
2911.204,113.2603,1018.3646871870797,2926.341900757806
2913.297,122.11572,1018.5812822826734,2928.4299925971163
2915.389,125.33593,1018.7978661227188,2930.517088144968
2917.48,127.5496,1019.0144386338653,2932.6031873993966
2919.569,133.99006,1019.2308961029096,2934.6872927012178
2921.657,136.80765,1019.4473420079879,2936.770401704416
2923.743,141.83911,1019.6636725475964,2938.851516748498
2925.829,153.71325,1019.8800950599716,2940.9326331479538
2927.913,162.76997,1020.0964019714347,2943.011755583097
2929.995,170.61892,1020.3125930759907,2945.0888840500384
2932.077,183.90195,1020.5288759762309,2947.1660138671646
2934.157,185.71309,1020.7450428337486,2949.2411497108997
2936.236,191.5495,1020.9611974348702,2951.315289239794
2938.313,202.21624,1021.1772356690194,2953.3874347888263
2940.389,207.85126,1021.393261410586,2955.45858401784
2942.464,219.12141,1021.6092745854733,2957.5287369249036
2944.538,214.89496,1021.8252751195289,2959.597893508069
2946.61,211.2725,1022.0411587255601,2961.665056099741
2948.681,207.85139,1022.2570294540798,2963.7312223623585
2950.751,192.75719,1022.4728872307509,2965.796392293983
2952.819,185.9144,1022.6886276359118,2967.8595682250875
2954.886,175.85167,1022.9043548521767,2969.921747820051
2956.952,162.36737,1023.1200688050235,2971.9829310769396
2959.016,158.34224,1023.3356649423271,2974.042120324294
2961.08,143.65051,1023.5513521004399,2976.1013108986076
2963.142,129.56237,1023.7669212054733,2978.1585074582504
2965.202,126.34225,1023.9823720503716,2980.213709999364
2967.262,119.0969,1024.1979137358949,2982.2689138623
2969.32,116.48059,1024.4133369233834,2984.322123701581
2971.376,107.8264,1024.6286414056037,2986.373339513359
2973.432,107.62503,1024.8440365477131,2988.424556641836
2975.486,98.36707,1025.0593127462926,2990.4737797376893
2977.539,103.80132,1025.2745746683481,2992.522006472387
2979.591,96.75701,1025.4898222386978,2994.5692368440036
2981.641,96.75709,1025.7049504194713,2996.6144731740515
2983.69,97.76347,1025.9200640097956,2998.6587131359124
2985.738,91.12177,1026.1351629343076,3000.701956727673
2987.785,90.51813,1026.3502471175893,3002.7442039474236
2989.83,90.31684,1026.565211345127,3004.784457114124
2991.874,87.0966,1026.7801605922118,3006.823713903715
2993.916,84.68155,1026.9949895560162,3008.86097663389
2995.958,86.49298,1027.2099085712316,3010.898240662905
2997.998,86.69412,1027.4247070635881,3012.933510627417
3000.037,81.86385,1027.6394901845354,3014.9677842059214
3002.075,78.64365,1027.8542578582394,3017.0010613965123
3004.111,79.0462,1028.0689045610636,3019.032344513716
3006.146,79.85125,1028.2835355765924,3021.0626312379304
3008.18,75.42349,1028.4981508288124,3023.09192156726
3010.212,75.82599,1028.7126446616091,3025.1192178143287
3012.244,74.01462,1028.927228114837,3027.146515347558
3014.274,72.20327,1029.141689908118,3029.1718187934644
3016.302,74.01471,1029.3560298328978,3031.1951281482525
3018.33,69.38565,1029.5704591934712,3033.218438784145
3020.356,67.57431,1029.7847664446708,3035.239755323873
3022.381,65.15923,1029.9990572224258,3037.2600754529126
3024.405,64.1529,1030.213331450258,3039.2793991693798
3026.427,65.15922,1030.427483118759,3041.2967287808483
3028.449,64.95796,1030.6417239729733,3043.314059665863
3030.469,61.13402,1030.855842026399,3045.329396440845
3032.487,-1.05665,1031.0698370700102,3047.34273910202
3034.505,0.15095,1031.2839211133105,3049.3560830317097
3036.521,-1.45918,1031.4978819049938,3051.3674328425664
