pixel,wavelength_nm_reported,raman_shift_reported_cm-1,counts_pixel_file,counts_nm2_file,counts_wavenumber_file,counts_nm_file_weak
0,789.882,77.3545,0.0,0.0,0.0,0.0
1,790.079,80.4019,382.0,388.0,378.0,360.0
2,790.277,83.4475,382.0,370.0,370.0,346.0
3,790.475,86.4914,359.0,347.0,371.0,328.0
4,790.673,89.5335,366.0,354.0,379.0,338.0
5,790.87,92.5738,357.0,348.0,361.0,326.0
6,791.068,95.6123,351.0,339.0,358.0,312.0
7,791.265,98.6491,350.0,348.0,363.0,311.0
8,791.463,101.684,349.0,358.0,367.0,320.0
9,791.66,104.717,358.0,356.0,362.0,337.0
10,791.858,107.749,367.0,355.0,362.0,338.0
11,792.055,110.779,351.0,342.0,360.0,319.0
12,792.252,113.806,325.0,337.0,330.0,313.0
13,792.449,116.833,331.0,350.0,332.0,329.0
14,792.647,119.857,344.0,355.0,352.0,330.0
15,792.844,122.88,344.0,347.0,345.0,322.0
16,793.041,125.901,341.0,339.0,342.0,324.0
17,793.238,128.92,340.0,341.0,349.0,324.0
18,793.435,131.937,335.0,343.0,356.0,318.0
19,793.632,134.953,348.0,355.0,361.0,331.0
20,793.829,137.967,362.0,373.0,368.0,345.0
21,794.025,140.979,351.0,348.0,364.0,323.0
22,794.222,143.989,353.0,341.0,363.0,316.0
23,794.419,146.998,357.0,341.0,368.0,323.0
24,794.616,150.004,367.0,358.0,370.0,340.0
25,794.812,153.01,401.0,389.0,359.0,333.0
26,795.009,156.013,433.0,407.0,374.0,319.0
27,795.205,159.014,461.0,438.0,400.0,322.0
28,795.402,162.014,488.0,432.0,404.0,319.0
29,795.598,165.012,493.0,421.0,411.0,305.0
30,795.794,168.009,488.0,424.0,435.0,314.0
31,795.991,171.003,453.0,391.0,426.0,321.0
32,796.187,173.996,419.0,359.0,394.0,302.0
33,796.383,176.987,401.0,344.0,388.0,308.0
34,796.579,179.976,377.0,331.0,378.0,318.0
35,796.775,182.964,372.0,346.0,376.0,334.0
36,796.972,185.95,358.0,346.0,364.0,321.0
37,797.168,188.934,352.0,340.0,348.0,309.0
38,797.364,191.916,343.0,328.0,340.0,315.0
39,797.559,194.897,330.0,309.0,330.0,301.0
40,797.755,197.876,328.0,317.0,331.0,301.0
41,797.951,200.853,324.0,319.0,330.0,287.0
42,798.147,203.828,330.0,324.0,343.0,283.0
43,798.343,206.802,323.0,332.0,343.0,293.0
44,798.538,209.774,326.0,338.0,339.0,300.0
45,798.734,212.744,336.0,341.0,341.0,306.0
46,798.929,215.713,318.0,330.0,323.0,298.0
47,799.125,218.679,315.0,331.0,326.0,308.0
48,799.32,221.644,321.0,328.0,339.0,309.0
49,799.516,224.607,299.0,302.0,325.0,290.0
50,799.711,227.569,312.0,318.0,325.0,299.0
51,799.906,230.529,336.0,331.0,333.0,306.0
52,800.102,233.487,324.0,318.0,307.0,296.0
53,800.297,236.443,336.0,340.0,311.0,290.0
54,800.492,239.398,349.0,348.0,338.0,295.0
55,800.687,242.351,368.0,348.0,348.0,300.0
56,800.882,245.302,399.0,379.0,361.0,309.0
57,801.077,248.251,398.0,391.0,362.0,303.0
58,801.272,251.199,421.0,388.0,360.0,290.0
59,801.467,254.145,468.0,422.0,399.0,317.0
60,801.662,257.089,496.0,443.0,432.0,333.0
61,801.857,260.031,541.0,442.0,454.0,329.0
62,802.051,262.972,570.0,450.0,471.0,318.0
63,802.246,265.911,555.0,459.0,470.0,298.0
64,802.441,268.849,533.0,445.0,472.0,296.0
65,802.635,271.784,510.0,429.0,454.0,307.0
66,802.83,274.718,477.0,404.0,422.0,319.0
67,803.024,277.65,427.0,365.0,395.0,323.0
68,803.219,280.581,371.0,355.0,377.0,306.0
69,803.413,283.51,341.0,360.0,375.0,307.0
70,803.608,286.437,329.0,336.0,356.0,309.0
71,803.802,289.362,325.0,321.0,338.0,298.0
72,803.996,292.285,324.0,331.0,331.0,291.0
73,804.19,295.207,332.0,336.0,321.0,292.0
74,804.385,298.128,336.0,329.0,307.0,288.0
75,804.579,301.046,328.0,321.0,314.0,294.0
76,804.773,303.963,352.0,347.0,348.0,318.0
77,804.967,306.878,364.0,355.0,344.0,316.0
78,805.161,309.791,356.0,337.0,343.0,312.0
79,805.355,312.703,379.0,373.0,372.0,327.0
80,805.549,315.613,370.0,365.0,344.0,316.0
81,805.742,318.521,355.0,342.0,328.0,299.0
82,805.936,321.427,359.0,370.0,346.0,312.0
83,806.13,324.332,341.0,371.0,340.0,308.0
84,806.323,327.235,361.0,376.0,361.0,316.0
85,806.517,330.137,387.0,367.0,360.0,307.0
86,806.711,333.036,354.0,345.0,336.0,299.0
87,806.904,335.934,337.0,350.0,350.0,312.0
88,807.098,338.831,362.0,352.0,356.0,299.0
89,807.291,341.725,387.0,364.0,358.0,319.0
90,807.484,344.618,397.0,369.0,364.0,325.0
91,807.678,347.509,373.0,350.0,348.0,292.0
92,807.871,350.399,366.0,345.0,351.0,288.0
93,808.064,353.287,396.0,372.0,367.0,307.0
94,808.257,356.173,418.0,404.0,361.0,307.0
95,808.451,359.057,419.0,383.0,345.0,291.0
96,808.644,361.94,443.0,391.0,365.0,303.0
97,808.837,364.821,482.0,419.0,414.0,316.0
98,809.03,367.7,517.0,439.0,432.0,305.0
99,809.223,370.578,595.0,502.0,450.0,309.0
100,809.415,373.454,762.0,604.0,534.0,326.0
101,809.608,376.328,1161.0,880.0,722.0,319.0
102,809.801,379.2,1867.0,1351.0,1096.0,309.0
103,809.994,382.071,2662.0,1925.0,1575.0,306.0
104,810.186,384.941,3410.0,2473.0,2006.0,308.0
105,810.379,387.808,3819.0,2734.0,2264.0,327.0
106,810.572,390.674,3815.0,2683.0,2337.0,353.0
107,810.764,393.538,3399.0,2317.0,2148.0,360.0
108,810.957,396.4,2526.0,1707.0,1666.0,345.0
109,811.149,399.261,1636.0,1153.0,1140.0,313.0
110,811.342,402.12,1042.0,810.0,766.0,305.0
111,811.534,404.978,782.0,664.0,628.0,332.0
112,811.726,407.833,713.0,605.0,594.0,335.0
113,811.918,410.687,762.0,616.0,562.0,332.0
114,812.111,413.54,895.0,684.0,608.0,337.0
115,812.303,416.391,1022.0,760.0,688.0,338.0
116,812.495,419.24,1117.0,814.0,744.0,338.0
117,812.687,422.087,1119.0,831.0,795.0,351.0
118,812.879,424.933,1000.0,756.0,793.0,365.0
119,813.071,427.776,843.0,622.0,693.0,371.0
120,813.263,430.619,660.0,506.0,538.0,354.0
121,813.455,433.459,493.0,413.0,436.0,338.0
122,813.646,436.298,403.0,365.0,381.0,317.0
123,813.838,439.136,383.0,355.0,352.0,315.0
124,814.03,441.971,384.0,361.0,364.0,335.0
125,814.222,444.805,359.0,347.0,353.0,319.0
126,814.413,447.638,354.0,345.0,346.0,314.0
127,814.605,450.468,371.0,350.0,350.0,312.0
128,814.796,453.297,353.0,328.0,336.0,295.0
129,814.988,456.124,350.0,326.0,338.0,302.0
130,815.179,458.95,362.0,332.0,338.0,293.0
131,815.37,461.774,370.0,345.0,347.0,286.0
132,815.562,464.596,395.0,375.0,366.0,308.0
133,815.753,467.417,412.0,393.0,372.0,310.0
134,815.944,470.236,422.0,382.0,385.0,297.0
135,816.135,473.053,483.0,397.0,404.0,289.0
136,816.327,475.869,582.0,469.0,440.0,306.0
137,816.518,478.683,645.0,511.0,477.0,306.0
138,816.709,481.495,715.0,539.0,524.0,311.0
139,816.9,484.306,727.0,555.0,556.0,325.0
140,817.091,487.115,665.0,531.0,535.0,310.0
141,817.282,489.922,572.0,491.0,484.0,305.0
142,817.472,492.728,478.0,452.0,427.0,316.0
143,817.663,495.532,425.0,421.0,398.0,325.0
144,817.854,498.334,375.0,381.0,381.0,312.0
145,818.045,501.135,372.0,360.0,371.0,310.0
146,818.235,503.934,404.0,356.0,370.0,323.0
147,818.426,506.732,388.0,338.0,360.0,315.0
148,818.616,509.527,351.0,341.0,343.0,297.0
149,818.807,512.321,362.0,353.0,348.0,290.0
150,818.997,515.114,381.0,357.0,349.0,294.0
151,819.188,517.905,375.0,352.0,339.0,301.0
152,819.378,520.694,371.0,343.0,356.0,304.0
153,819.568,523.482,358.0,339.0,359.0,303.0
154,819.759,526.267,365.0,352.0,349.0,315.0
155,819.949,529.052,375.0,359.0,356.0,317.0
156,820.139,531.834,368.0,354.0,340.0,293.0
157,820.329,534.615,360.0,357.0,337.0,299.0
158,820.519,537.395,371.0,362.0,350.0,317.0
159,820.709,540.172,378.0,354.0,343.0,308.0
160,820.899,542.948,365.0,346.0,353.0,300.0
161,821.089,545.723,365.0,341.0,356.0,295.0
162,821.279,548.496,367.0,341.0,344.0,292.0
163,821.469,551.267,382.0,357.0,343.0,295.0
164,821.659,554.036,390.0,368.0,356.0,308.0
165,821.849,556.804,384.0,366.0,371.0,320.0
166,822.038,559.57,376.0,368.0,379.0,304.0
167,822.228,562.335,372.0,370.0,375.0,290.0
168,822.417,565.098,363.0,357.0,357.0,285.0
169,822.607,567.859,367.0,357.0,366.0,292.0
170,822.797,570.619,402.0,372.0,374.0,310.0
171,822.986,573.377,413.0,375.0,361.0,314.0
172,823.175,576.133,403.0,377.0,370.0,321.0
173,823.365,578.888,403.0,369.0,373.0,319.0
174,823.554,581.641,417.0,368.0,377.0,324.0
175,823.743,584.393,424.0,388.0,395.0,337.0
176,823.933,587.143,400.0,365.0,372.0,310.0
177,824.122,589.891,376.0,347.0,341.0,278.0
178,824.311,592.638,372.0,373.0,338.0,288.0
179,824.5,595.383,379.0,375.0,341.0,295.0
180,824.689,598.126,395.0,380.0,355.0,297.0
181,824.878,600.868,396.0,385.0,362.0,307.0
182,825.067,603.608,395.0,374.0,368.0,300.0
183,825.256,606.347,400.0,372.0,373.0,306.0
184,825.445,609.084,388.0,379.0,373.0,319.0
185,825.633,611.819,388.0,382.0,361.0,314.0
186,825.822,614.553,397.0,383.0,361.0,315.0
187,826.011,617.285,391.0,376.0,355.0,301.0
188,826.2,620.015,390.0,393.0,354.0,293.0
189,826.388,622.744,401.0,407.0,379.0,297.0
190,826.577,625.471,403.0,394.0,378.0,297.0
191,826.765,628.197,414.0,407.0,385.0,299.0
192,826.954,630.921,445.0,441.0,396.0,307.0
193,827.142,633.644,476.0,461.0,405.0,322.0
194,827.33,636.364,523.0,468.0,441.0,327.0
195,827.519,639.084,553.0,479.0,456.0,321.0
196,827.707,641.801,551.0,482.0,470.0,310.0
197,827.895,644.517,568.0,475.0,499.0,304.0
198,828.084,647.231,568.0,460.0,479.0,294.0
199,828.272,649.944,506.0,434.0,437.0,286.0
200,828.46,652.655,444.0,395.0,384.0,281.0
201,828.648,655.365,436.0,391.0,377.0,288.0
202,828.836,658.073,428.0,407.0,406.0,300.0
203,829.024,660.779,428.0,402.0,406.0,305.0
204,829.212,663.484,437.0,422.0,412.0,317.0
205,829.4,666.187,443.0,435.0,407.0,319.0
206,829.587,668.888,444.0,419.0,406.0,322.0
207,829.775,671.588,446.0,430.0,420.0,333.0
208,829.963,674.287,439.0,425.0,400.0,309.0
209,830.151,676.983,426.0,420.0,381.0,299.0
210,830.338,679.679,426.0,408.0,387.0,311.0
211,830.526,682.372,440.0,406.0,401.0,306.0
212,830.713,685.064,437.0,420.0,404.0,300.0
213,830.901,687.754,420.0,413.0,405.0,296.0
214,831.088,690.443,429.0,409.0,414.0,291.0
215,831.276,693.13,428.0,392.0,386.0,289.0
216,831.463,695.816,438.0,396.0,374.0,293.0
217,831.65,698.5,454.0,428.0,404.0,308.0
218,831.837,701.182,448.0,429.0,401.0,303.0
219,832.025,703.863,441.0,422.0,397.0,296.0
220,832.212,706.542,447.0,417.0,404.0,297.0
221,832.399,709.22,453.0,401.0,405.0,287.0
222,832.586,711.896,459.0,419.0,408.0,304.0
223,832.773,714.57,451.0,431.0,399.0,301.0
224,832.96,717.243,461.0,429.0,392.0,295.0
225,833.147,719.914,455.0,436.0,406.0,305.0
226,833.334,722.584,445.0,428.0,420.0,301.0
227,833.521,725.252,463.0,424.0,402.0,297.0
228,833.707,727.919,465.0,440.0,408.0,298.0
229,833.894,730.584,470.0,448.0,414.0,298.0
230,834.081,733.247,468.0,429.0,415.0,290.0
231,834.268,735.909,449.0,419.0,412.0,288.0
232,834.454,738.569,452.0,434.0,406.0,313.0
233,834.641,741.227,457.0,440.0,423.0,321.0
234,834.827,743.884,455.0,405.0,395.0,285.0
235,835.014,746.54,462.0,410.0,383.0,278.0
236,835.2,749.194,461.0,444.0,412.0,301.0
237,835.387,751.846,472.0,445.0,429.0,307.0
238,835.573,754.497,472.0,439.0,420.0,302.0
239,835.759,757.146,476.0,447.0,416.0,298.0
240,835.945,759.794,484.0,439.0,429.0,292.0
241,836.132,762.44,468.0,419.0,408.0,287.0
242,836.318,765.084,474.0,425.0,390.0,290.0
243,836.504,767.727,494.0,434.0,414.0,301.0
244,836.69,770.368,499.0,457.0,429.0,309.0
245,836.876,773.008,511.0,466.0,418.0,305.0
246,837.062,775.646,495.0,465.0,405.0,296.0
247,837.248,778.283,466.0,452.0,403.0,281.0
248,837.434,780.918,480.0,429.0,413.0,280.0
249,837.62,783.551,504.0,446.0,421.0,291.0
250,837.805,786.183,489.0,436.0,417.0,286.0
251,837.991,788.813,475.0,419.0,415.0,291.0
252,838.177,791.442,499.0,434.0,427.0,296.0
253,838.362,794.069,502.0,444.0,441.0,294.0
254,838.548,796.695,489.0,455.0,423.0,293.0
255,838.734,799.319,493.0,467.0,412.0,298.0
256,838.919,801.942,489.0,475.0,427.0,298.0
257,839.105,804.563,491.0,467.0,435.0,292.0
258,839.29,807.182,514.0,455.0,427.0,303.0
259,839.475,809.8,514.0,462.0,424.0,291.0
260,839.661,812.416,497.0,457.0,438.0,278.0
261,839.846,815.031,501.0,443.0,441.0,302.0
262,840.031,817.644,506.0,467.0,441.0,306.0
263,840.216,820.256,511.0,474.0,444.0,296.0
264,840.402,822.866,513.0,456.0,435.0,284.0
265,840.587,825.475,502.0,456.0,444.0,280.0
266,840.772,828.082,511.0,481.0,466.0,303.0
267,840.957,830.687,527.0,477.0,451.0,288.0
268,841.142,833.291,532.0,476.0,452.0,263.0
269,841.327,835.893,550.0,516.0,467.0,286.0
270,841.511,838.494,604.0,543.0,489.0,305.0
271,841.696,841.093,687.0,579.0,523.0,313.0
272,841.881,843.691,760.0,612.0,554.0,309.0
273,842.066,846.287,836.0,642.0,600.0,291.0
274,842.251,848.882,909.0,687.0,652.0,316.0
275,842.435,851.475,917.0,698.0,659.0,335.0
276,842.62,854.066,831.0,661.0,627.0,318.0
277,842.804,856.656,704.0,605.0,593.0,302.0
278,842.989,859.245,639.0,564.0,532.0,293.0
279,843.173,861.832,642.0,550.0,498.0,293.0
280,843.358,864.417,709.0,596.0,537.0,316.0
281,843.542,867.001,832.0,665.0,625.0,319.0
282,843.726,869.583,963.0,705.0,701.0,297.0
283,843.911,872.164,1043.0,739.0,732.0,305.0
284,844.095,874.743,1010.0,733.0,729.0,320.0
285,844.279,877.321,930.0,696.0,685.0,313.0
286,844.463,879.897,824.0,636.0,623.0,317.0
287,844.648,882.472,690.0,566.0,544.0,322.0
288,844.832,885.045,613.0,534.0,487.0,299.0
289,845.016,887.616,579.0,520.0,472.0,285.0
290,845.2,890.187,570.0,512.0,464.0,290.0
291,845.384,892.755,568.0,513.0,459.0,302.0
292,845.567,895.322,570.0,525.0,475.0,301.0
293,845.751,897.887,588.0,556.0,496.0,305.0
294,845.935,900.451,586.0,557.0,496.0,298.0
295,846.119,903.014,572.0,534.0,482.0,286.0
296,846.302,905.575,585.0,519.0,481.0,302.0
297,846.486,908.134,612.0,527.0,504.0,325.0
298,846.67,910.692,608.0,538.0,494.0,321.0
299,846.853,913.248,598.0,530.0,481.0,300.0
300,847.037,915.803,611.0,547.0,499.0,302.0
301,847.22,918.356,599.0,545.0,503.0,309.0
302,847.404,920.908,590.0,531.0,498.0,306.0
303,847.587,923.458,610.0,555.0,509.0,311.0
304,847.771,926.007,585.0,539.0,485.0,304.0
305,847.954,928.554,581.0,539.0,485.0,292.0
306,848.137,931.1,614.0,546.0,506.0,304.0
307,848.32,933.644,622.0,530.0,496.0,307.0
308,848.504,936.186,604.0,544.0,487.0,307.0
309,848.687,938.728,602.0,539.0,473.0,298.0
310,848.87,941.267,626.0,556.0,481.0,300.0
311,849.053,943.805,626.0,574.0,494.0,314.0
312,849.236,946.342,612.0,553.0,501.0,310.0
313,849.419,948.877,651.0,556.0,516.0,317.0
314,849.602,951.41,689.0,570.0,526.0,325.0
315,849.785,953.943,640.0,571.0,527.0,316.0
316,849.967,956.473,625.0,561.0,541.0,307.0
317,850.15,959.002,633.0,565.0,527.0,304.0
318,850.333,961.53,626.0,581.0,511.0,307.0
319,850.516,964.056,643.0,594.0,513.0,319.0
320,850.698,966.58,633.0,591.0,509.0,316.0
321,850.881,969.103,621.0,582.0,518.0,305.0
322,851.063,971.625,635.0,569.0,531.0,312.0
323,851.246,974.145,627.0,567.0,541.0,325.0
324,851.428,976.663,629.0,578.0,529.0,313.0
325,851.611,979.18,662.0,550.0,502.0,288.0
326,851.793,981.696,682.0,578.0,498.0,300.0
327,851.976,984.21,675.0,595.0,509.0,303.0
328,852.158,986.722,666.0,565.0,537.0,297.0
329,852.34,989.233,677.0,577.0,557.0,316.0
330,852.522,991.743,666.0,578.0,530.0,303.0
331,852.704,994.251,674.0,591.0,535.0,297.0
332,852.887,996.757,715.0,605.0,567.0,303.0
333,853.069,999.262,744.0,614.0,561.0,300.0
334,853.251,1001.77,776.0,666.0,586.0,309.0
335,853.433,1004.27,803.0,701.0,618.0,309.0
336,853.615,1006.77,812.0,700.0,613.0,308.0
337,853.796,1009.27,822.0,689.0,609.0,313.0
338,853.978,1011.77,830.0,651.0,592.0,302.0
339,854.16,1014.26,767.0,632.0,595.0,295.0
340,854.342,1016.76,704.0,618.0,578.0,293.0
341,854.524,1019.25,707.0,600.0,563.0,307.0
342,854.705,1021.74,710.0,617.0,558.0,321.0
343,854.887,1024.23,702.0,615.0,535.0,298.0
344,855.069,1026.72,692.0,602.0,536.0,298.0
345,855.25,1029.21,699.0,618.0,559.0,313.0
346,855.432,1031.69,705.0,631.0,557.0,321.0
347,855.613,1034.18,681.0,607.0,525.0,296.0
348,855.794,1036.66,672.0,593.0,548.0,280.0
349,855.976,1039.14,698.0,613.0,554.0,294.0
350,856.157,1041.62,719.0,611.0,519.0,284.0
351,856.338,1044.1,710.0,587.0,518.0,290.0
352,856.52,1046.58,699.0,592.0,537.0,289.0
353,856.701,1049.05,697.0,628.0,546.0,285.0
354,856.882,1051.52,695.0,616.0,551.0,292.0
355,857.063,1054.0,683.0,598.0,561.0,292.0
356,857.244,1056.47,673.0,593.0,547.0,290.0
357,857.425,1058.94,686.0,589.0,556.0,293.0
358,857.606,1061.4,693.0,612.0,570.0,298.0
359,857.787,1063.87,717.0,623.0,557.0,301.0
360,857.968,1066.34,725.0,634.0,572.0,294.0
361,858.149,1068.8,701.0,624.0,567.0,284.0
362,858.33,1071.26,701.0,620.0,554.0,296.0
363,858.511,1073.72,699.0,615.0,552.0,302.0
364,858.691,1076.18,704.0,614.0,536.0,279.0
365,858.872,1078.64,707.0,640.0,540.0,277.0
366,859.053,1081.1,714.0,649.0,549.0,287.0
367,859.233,1083.55,736.0,653.0,572.0,290.0
368,859.414,1086.0,725.0,627.0,585.0,293.0
369,859.594,1088.46,702.0,607.0,537.0,263.0
370,859.775,1090.91,687.0,617.0,545.0,261.0
371,859.955,1093.35,716.0,604.0,574.0,290.0
372,860.136,1095.8,747.0,596.0,566.0,293.0
373,860.316,1098.25,727.0,618.0,565.0,275.0
374,860.496,1100.69,718.0,635.0,554.0,276.0
375,860.677,1103.14,738.0,651.0,569.0,305.0
376,860.857,1105.58,731.0,665.0,563.0,287.0
377,861.037,1108.02,727.0,649.0,557.0,269.0
378,861.217,1110.46,733.0,657.0,591.0,286.0
379,861.397,1112.89,734.0,667.0,618.0,295.0
380,861.577,1115.33,750.0,655.0,610.0,297.0
381,861.757,1117.76,762.0,662.0,594.0,284.0
382,861.937,1120.2,758.0,666.0,582.0,280.0
383,862.117,1122.63,753.0,641.0,568.0,263.0
384,862.297,1125.06,749.0,643.0,589.0,257.0
385,862.477,1127.49,751.0,654.0,588.0,266.0
386,862.657,1129.91,746.0,675.0,589.0,273.0
387,862.836,1132.34,736.0,681.0,591.0,265.0
388,863.016,1134.76,758.0,681.0,584.0,266.0
389,863.196,1137.19,772.0,689.0,587.0,292.0
390,863.375,1139.61,775.0,667.0,581.0,294.0
391,863.555,1142.03,792.0,678.0,603.0,297.0
392,863.734,1144.44,798.0,690.0,609.0,286.0
393,863.914,1146.86,780.0,698.0,628.0,277.0
394,864.093,1149.28,784.0,701.0,626.0,286.0
395,864.273,1151.69,797.0,687.0,598.0,281.0
396,864.452,1154.1,800.0,696.0,602.0,269.0
397,864.631,1156.52,793.0,711.0,596.0,267.0
398,864.811,1158.92,806.0,711.0,609.0,286.0
399,864.99,1161.33,824.0,721.0,630.0,303.0
400,865.169,1163.74,815.0,698.0,615.0,284.0
401,865.348,1166.15,811.0,690.0,596.0,253.0
402,865.527,1168.55,793.0,714.0,605.0,256.0
403,865.706,1170.95,800.0,711.0,614.0,272.0
404,865.885,1173.35,837.0,713.0,634.0,288.0
405,866.064,1175.75,841.0,693.0,657.0,297.0
406,866.243,1178.15,872.0,719.0,642.0,300.0
407,866.422,1180.55,867.0,743.0,604.0,292.0
408,866.601,1182.94,810.0,700.0,607.0,278.0
409,866.78,1185.34,813.0,696.0,611.0,271.0
410,866.959,1187.73,840.0,723.0,626.0,280.0
411,867.137,1190.12,870.0,739.0,650.0,301.0
412,867.316,1192.51,877.0,733.0,636.0,310.0
413,867.495,1194.9,870.0,738.0,646.0,292.0
414,867.673,1197.29,888.0,772.0,663.0,283.0
415,867.852,1199.67,880.0,780.0,639.0,290.0
416,868.03,1202.05,876.0,754.0,659.0,283.0
417,868.209,1204.44,920.0,770.0,716.0,299.0
418,868.387,1206.82,964.0,800.0,701.0,307.0
419,868.566,1209.2,958.0,791.0,685.0,303.0
420,868.744,1211.58,937.0,783.0,700.0,306.0
421,868.922,1213.95,928.0,780.0,703.0,312.0
422,869.101,1216.33,955.0,772.0,705.0,306.0
423,869.279,1218.7,973.0,790.0,701.0,296.0
424,869.457,1221.08,946.0,813.0,693.0,295.0
425,869.635,1223.45,958.0,800.0,686.0,280.0
426,869.813,1225.82,948.0,784.0,699.0,279.0
427,869.991,1228.18,931.0,787.0,708.0,295.0
428,870.169,1230.55,950.0,805.0,704.0,316.0
429,870.347,1232.92,959.0,829.0,737.0,307.0
430,870.525,1235.28,998.0,866.0,777.0,298.0
431,870.703,1237.64,1078.0,924.0,786.0,312.0
432,870.881,1240.01,1146.0,964.0,813.0,323.0
433,871.059,1242.36,1206.0,970.0,830.0,316.0
434,871.237,1244.72,1207.0,992.0,817.0,293.0
435,871.414,1247.08,1216.0,997.0,821.0,293.0
436,871.592,1249.44,1224.0,991.0,822.0,291.0
437,871.77,1251.79,1246.0,1023.0,845.0,301.0
438,871.947,1254.14,1376.0,1103.0,891.0,311.0
439,872.125,1256.49,1528.0,1253.0,943.0,288.0
440,872.302,1258.84,2098.0,1719.0,1224.0,295.0
441,872.48,1261.19,4026.0,3163.0,2252.0,326.0
442,872.657,1263.54,7606.0,5887.0,4331.0,345.0
443,872.835,1265.89,12084.0,9149.0,6943.0,376.0
444,873.012,1268.23,15868.0,11794.0,9425.0,405.0
445,873.189,1270.57,17891.0,13228.0,10919.0,459.0
446,873.367,1272.92,17618.0,12811.0,10740.0,478.0
447,873.544,1275.26,14853.0,10654.0,9124.0,443.0
448,873.721,1277.59,10558.0,7774.0,6582.0,421.0
449,873.898,1279.93,6382.0,4912.0,4049.0,395.0
450,874.075,1282.27,3365.0,2710.0,2224.0,355.0
451,874.252,1284.6,1738.0,1490.0,1245.0,332.0
452,874.429,1286.94,1217.0,1049.0,887.0,334.0
453,874.606,1289.27,1063.0,927.0,788.0,323.0
454,874.783,1291.6,991.0,859.0,742.0,303.0
455,874.96,1293.93,939.0,797.0,678.0,294.0
456,875.137,1296.26,915.0,807.0,676.0,317.0
457,875.314,1298.58,907.0,809.0,681.0,298.0
458,875.491,1300.91,909.0,789.0,672.0,286.0
459,875.667,1303.23,904.0,799.0,679.0,310.0
460,875.844,1305.55,875.0,770.0,674.0,305.0
461,876.021,1307.87,879.0,734.0,660.0,291.0
462,876.197,1310.19,860.0,740.0,644.0,289.0
463,876.374,1312.51,851.0,755.0,659.0,308.0
464,876.55,1314.83,853.0,749.0,653.0,303.0
465,876.727,1317.14,844.0,745.0,628.0,280.0
466,876.903,1319.46,859.0,750.0,641.0,286.0
467,877.08,1321.77,831.0,734.0,628.0,284.0
468,877.256,1324.08,808.0,718.0,603.0,276.0
469,877.432,1326.39,831.0,736.0,626.0,285.0
470,877.609,1328.7,840.0,740.0,631.0,293.0
471,877.785,1331.0,858.0,757.0,629.0,316.0
472,877.961,1333.31,864.0,772.0,650.0,312.0
473,878.137,1335.61,818.0,728.0,629.0,286.0
474,878.313,1337.92,822.0,727.0,640.0,289.0
475,878.49,1340.22,853.0,758.0,656.0,301.0
476,878.666,1342.52,852.0,750.0,634.0,296.0
477,878.842,1344.82,833.0,716.0,639.0,293.0
478,879.018,1347.11,834.0,691.0,636.0,302.0
479,879.194,1349.41,851.0,707.0,636.0,309.0
480,879.369,1351.7,842.0,723.0,627.0,297.0
481,879.545,1354.0,825.0,728.0,640.0,283.0
482,879.721,1356.29,832.0,738.0,651.0,295.0
483,879.897,1358.58,839.0,756.0,631.0,303.0
484,880.073,1360.87,825.0,747.0,643.0,295.0
485,880.248,1363.16,825.0,712.0,629.0,298.0
486,880.424,1365.44,812.0,684.0,611.0,288.0
487,880.599,1367.73,785.0,689.0,617.0,278.0
488,880.775,1370.01,794.0,739.0,616.0,300.0
489,880.951,1372.29,825.0,727.0,632.0,309.0
490,881.126,1374.58,829.0,698.0,641.0,298.0
491,881.301,1376.85,823.0,715.0,617.0,296.0
492,881.477,1379.13,832.0,713.0,616.0,289.0
493,881.652,1381.41,835.0,704.0,630.0,296.0
494,881.827,1383.69,806.0,723.0,641.0,301.0
495,882.003,1385.96,812.0,731.0,629.0,280.0
496,882.178,1388.23,821.0,687.0,609.0,252.0
497,882.353,1390.5,804.0,679.0,615.0,271.0
498,882.528,1392.77,810.0,687.0,616.0,292.0
499,882.703,1395.04,801.0,692.0,623.0,283.0
500,882.879,1397.31,791.0,725.0,611.0,296.0
501,883.054,1399.58,796.0,713.0,604.0,288.0
502,883.229,1401.84,798.0,688.0,596.0,274.0
503,883.404,1404.1,795.0,696.0,601.0,292.0
504,883.578,1406.37,779.0,678.0,612.0,279.0
505,883.753,1408.63,774.0,687.0,615.0,263.0
506,883.928,1410.89,800.0,698.0,641.0,293.0
507,884.103,1413.14,797.0,700.0,627.0,302.0
508,884.278,1415.4,803.0,731.0,610.0,308.0
509,884.452,1417.66,813.0,735.0,624.0,312.0
510,884.627,1419.91,804.0,726.0,630.0,298.0
511,884.802,1422.16,791.0,709.0,603.0,286.0
512,884.976,1424.41,792.0,700.0,589.0,276.0
513,885.151,1426.66,798.0,683.0,588.0,278.0
514,885.325,1428.91,810.0,686.0,587.0,291.0
515,885.5,1431.16,807.0,712.0,608.0,294.0
516,885.674,1433.4,787.0,694.0,613.0,294.0
517,885.849,1435.65,808.0,675.0,597.0,296.0
518,886.023,1437.89,816.0,692.0,612.0,298.0
519,886.197,1440.13,821.0,691.0,622.0,305.0
520,886.372,1442.37,806.0,690.0,604.0,294.0
521,886.546,1444.61,797.0,693.0,591.0,294.0
522,886.72,1446.85,791.0,668.0,589.0,290.0
523,886.894,1449.09,782.0,661.0,606.0,282.0
524,887.068,1451.32,798.0,693.0,624.0,301.0
525,887.242,1453.56,774.0,707.0,606.0,294.0
526,887.417,1455.79,742.0,696.0,574.0,284.0
527,887.591,1458.02,772.0,705.0,590.0,295.0
528,887.764,1460.25,793.0,699.0,615.0,294.0
529,887.938,1462.48,765.0,674.0,602.0,277.0
530,888.112,1464.71,770.0,672.0,595.0,278.0
531,888.286,1466.93,773.0,665.0,606.0,281.0
532,888.46,1469.16,758.0,668.0,603.0,277.0
533,888.634,1471.38,751.0,667.0,585.0,270.0
534,888.807,1473.6,746.0,666.0,590.0,269.0
535,888.981,1475.82,774.0,672.0,595.0,277.0
536,889.155,1478.04,784.0,672.0,576.0,278.0
537,889.328,1480.26,752.0,680.0,577.0,283.0
538,889.502,1482.47,754.0,677.0,581.0,281.0
539,889.675,1484.69,768.0,658.0,581.0,281.0
540,889.849,1486.9,765.0,640.0,579.0,287.0
541,890.022,1489.12,769.0,665.0,576.0,289.0
542,890.196,1491.33,778.0,665.0,580.0,277.0
543,890.369,1493.54,777.0,642.0,589.0,261.0
544,890.543,1495.75,778.0,678.0,596.0,280.0
545,890.716,1497.95,768.0,687.0,578.0,293.0
546,890.889,1500.16,756.0,675.0,582.0,277.0
547,891.062,1502.36,735.0,678.0,597.0,278.0
548,891.235,1504.57,738.0,678.0,582.0,285.0
549,891.409,1506.77,786.0,676.0,586.0,300.0
550,891.582,1508.97,795.0,665.0,601.0,298.0
551,891.755,1511.17,764.0,644.0,590.0,275.0
552,891.928,1513.37,748.0,645.0,578.0,285.0
553,892.101,1515.57,750.0,684.0,572.0,288.0
554,892.274,1517.76,727.0,674.0,556.0,270.0
555,892.447,1519.95,746.0,675.0,571.0,275.0
556,892.62,1522.15,777.0,691.0,606.0,291.0
557,892.792,1524.34,753.0,688.0,599.0,293.0
558,892.965,1526.53,743.0,692.0,588.0,293.0
559,893.138,1528.72,731.0,669.0,584.0,290.0
560,893.311,1530.91,739.0,652.0,568.0,282.0
561,893.483,1533.09,747.0,660.0,576.0,279.0
562,893.656,1535.28,755.0,677.0,575.0,277.0
563,893.828,1537.46,775.0,671.0,583.0,289.0
564,894.001,1539.64,753.0,652.0,601.0,292.0
565,894.174,1541.83,768.0,683.0,612.0,302.0
566,894.346,1544.01,780.0,690.0,617.0,310.0
567,894.518,1546.18,751.0,671.0,595.0,291.0
568,894.691,1548.36,729.0,673.0,573.0,277.0
569,894.863,1550.54,722.0,652.0,567.0,272.0
570,895.036,1552.71,743.0,632.0,557.0,274.0
571,895.208,1554.89,745.0,646.0,561.0,284.0
572,895.38,1557.06,751.0,650.0,552.0,284.0
573,895.552,1559.23,755.0,650.0,551.0,269.0
574,895.725,1561.4,737.0,660.0,581.0,272.0
575,895.897,1563.57,724.0,673.0,591.0,278.0
576,896.069,1565.73,749.0,680.0,573.0,280.0
577,896.241,1567.9,759.0,647.0,559.0,279.0
578,896.413,1570.06,764.0,657.0,565.0,292.0
579,896.585,1572.23,782.0,696.0,563.0,304.0
580,896.757,1574.39,773.0,676.0,584.0,292.0
581,896.929,1576.55,773.0,656.0,591.0,289.0
582,897.101,1578.71,767.0,676.0,574.0,287.0
583,897.272,1580.87,760.0,676.0,576.0,287.0
584,897.444,1583.02,752.0,657.0,571.0,287.0
585,897.616,1585.18,748.0,666.0,576.0,293.0
586,897.788,1587.33,755.0,672.0,598.0,290.0
587,897.959,1589.49,755.0,656.0,590.0,278.0
588,898.131,1591.64,753.0,667.0,583.0,284.0
589,898.302,1593.79,746.0,676.0,587.0,288.0
590,898.474,1595.94,745.0,673.0,596.0,294.0
591,898.646,1598.08,785.0,679.0,614.0,312.0
592,898.817,1600.23,799.0,679.0,600.0,305.0
593,898.989,1602.38,800.0,666.0,589.0,299.0
594,899.16,1604.52,811.0,665.0,603.0,300.0
595,899.331,1606.66,778.0,687.0,607.0,279.0
596,899.503,1608.8,765.0,694.0,596.0,283.0
597,899.674,1610.94,780.0,693.0,591.0,310.0
598,899.845,1613.08,753.0,673.0,590.0,296.0
599,900.016,1615.22,736.0,660.0,585.0,289.0
600,900.188,1617.36,760.0,658.0,576.0,292.0
601,900.359,1619.49,756.0,675.0,583.0,282.0
602,900.53,1621.62,761.0,701.0,602.0,296.0
603,900.701,1623.76,768.0,683.0,605.0,298.0
604,900.872,1625.89,768.0,671.0,604.0,288.0
605,901.043,1628.02,772.0,651.0,584.0,294.0
606,901.214,1630.15,761.0,637.0,578.0,299.0
607,901.385,1632.27,755.0,657.0,596.0,299.0
608,901.556,1634.4,762.0,659.0,586.0,293.0
609,901.727,1636.53,761.0,668.0,587.0,296.0
610,901.897,1638.65,741.0,679.0,594.0,290.0
611,902.068,1640.77,741.0,673.0,586.0,279.0
612,902.239,1642.89,766.0,672.0,603.0,296.0
613,902.41,1645.01,766.0,696.0,607.0,316.0
614,902.58,1647.13,741.0,681.0,597.0,309.0
615,902.751,1649.25,735.0,665.0,591.0,294.0
616,902.921,1651.36,757.0,671.0,603.0,300.0
617,903.092,1653.48,768.0,662.0,601.0,300.0
618,903.262,1655.59,769.0,651.0,598.0,291.0
619,903.433,1657.71,760.0,654.0,586.0,286.0
620,903.603,1659.82,744.0,673.0,582.0,299.0
621,903.774,1661.93,762.0,663.0,602.0,288.0
622,903.944,1664.04,778.0,663.0,599.0,288.0
623,904.114,1666.14,761.0,682.0,610.0,299.0
624,904.285,1668.25,738.0,663.0,581.0,281.0
625,904.455,1670.35,760.0,649.0,583.0,304.0
626,904.625,1672.46,773.0,667.0,593.0,313.0
627,904.795,1674.56,771.0,694.0,591.0,305.0
628,904.965,1676.66,760.0,684.0,578.0,294.0
629,905.135,1678.76,745.0,656.0,561.0,281.0
630,905.306,1680.86,751.0,669.0,585.0,297.0
631,905.476,1682.96,765.0,665.0,586.0,291.0
632,905.646,1685.05,768.0,665.0,599.0,286.0
633,905.815,1687.15,759.0,674.0,601.0,296.0
634,905.985,1689.24,724.0,657.0,571.0,277.0
635,906.155,1691.33,713.0,652.0,581.0,282.0
636,906.325,1693.42,764.0,659.0,607.0,299.0
637,906.495,1695.51,754.0,641.0,588.0,295.0
638,906.665,1697.6,745.0,644.0,592.0,304.0
639,906.834,1699.69,753.0,642.0,586.0,292.0
640,907.004,1701.78,747.0,648.0,569.0,297.0
641,907.174,1703.86,744.0,649.0,563.0,292.0
642,907.343,1705.95,735.0,636.0,559.0,276.0
643,907.513,1708.03,760.0,665.0,583.0,296.0
644,907.682,1710.11,762.0,681.0,609.0,302.0
645,907.852,1712.19,739.0,673.0,609.0,297.0
646,908.021,1714.27,724.0,686.0,581.0,292.0
647,908.191,1716.35,740.0,666.0,566.0,286.0
648,908.36,1718.42,770.0,661.0,579.0,300.0
649,908.53,1720.5,760.0,661.0,586.0,305.0
650,908.699,1722.57,744.0,625.0,577.0,282.0
651,908.868,1724.64,725.0,610.0,572.0,271.0
652,909.037,1726.72,725.0,625.0,579.0,280.0
653,909.207,1728.79,748.0,653.0,585.0,298.0
654,909.376,1730.85,748.0,632.0,575.0,296.0
655,909.545,1732.92,754.0,628.0,574.0,287.0
656,909.714,1734.99,737.0,652.0,563.0,283.0
657,909.883,1737.05,732.0,657.0,566.0,282.0
658,910.052,1739.12,741.0,650.0,573.0,287.0
659,910.221,1741.18,727.0,643.0,542.0,288.0
660,910.39,1743.24,723.0,659.0,543.0,274.0
661,910.559,1745.3,701.0,661.0,546.0,262.0
662,910.728,1747.36,717.0,660.0,552.0,257.0
663,910.897,1749.42,736.0,669.0,577.0,268.0
664,911.065,1751.48,730.0,653.0,572.0,282.0
665,911.234,1753.53,716.0,650.0,575.0,274.0
666,911.403,1755.59,714.0,674.0,586.0,280.0
667,911.572,1757.64,739.0,665.0,565.0,282.0
668,911.74,1759.69,734.0,639.0,548.0,276.0
669,911.909,1761.74,728.0,643.0,569.0,272.0
670,912.078,1763.79,710.0,630.0,568.0,255.0
671,912.246,1765.84,710.0,627.0,543.0,262.0
672,912.415,1767.89,744.0,639.0,547.0,280.0
673,912.583,1769.93,736.0,645.0,551.0,265.0
674,912.752,1771.98,754.0,684.0,577.0,275.0
675,912.92,1774.02,832.0,704.0,616.0,294.0
676,913.088,1776.07,915.0,743.0,639.0,286.0
677,913.257,1778.11,1007.0,807.0,714.0,289.0
678,913.425,1780.15,1092.0,847.0,795.0,298.0
679,913.593,1782.19,1135.0,897.0,852.0,304.0
680,913.761,1784.22,1127.0,883.0,830.0,294.0
681,913.93,1786.26,1097.0,821.0,752.0,267.0
682,914.098,1788.29,1031.0,774.0,734.0,268.0
683,914.266,1790.33,958.0,737.0,705.0,297.0
684,914.434,1792.36,874.0,718.0,648.0,297.0
685,914.602,1794.39,782.0,669.0,603.0,276.0
686,914.77,1796.42,741.0,626.0,563.0,261.0
687,914.938,1798.45,735.0,630.0,584.0,270.0
688,915.106,1800.48,730.0,626.0,590.0,274.0
689,915.274,1802.51,725.0,641.0,545.0,273.0
690,915.442,1804.53,743.0,654.0,553.0,288.0
691,915.61,1806.56,742.0,646.0,580.0,282.0
692,915.777,1808.58,728.0,640.0,584.0,277.0
693,915.945,1810.6,719.0,643.0,567.0,278.0
694,916.113,1812.62,702.0,645.0,559.0,264.0
695,916.281,1814.64,702.0,638.0,550.0,264.0
696,916.448,1816.66,713.0,658.0,544.0,278.0
697,916.616,1818.68,716.0,666.0,578.0,278.0
698,916.783,1820.69,730.0,627.0,585.0,271.0
699,916.951,1822.71,727.0,614.0,589.0,265.0
700,917.118,1824.72,704.0,638.0,600.0,264.0
701,917.286,1826.73,709.0,632.0,584.0,267.0
702,917.453,1828.75,712.0,613.0,573.0,272.0
703,917.621,1830.76,692.0,637.0,575.0,272.0
704,917.788,1832.76,704.0,665.0,584.0,279.0
705,917.955,1834.77,731.0,636.0,581.0,290.0
706,918.123,1836.78,735.0,614.0,573.0,283.0
707,918.29,1838.78,733.0,607.0,546.0,277.0
708,918.457,1840.79,721.0,629.0,530.0,275.0
709,918.624,1842.79,727.0,674.0,559.0,272.0
710,918.792,1844.79,727.0,660.0,571.0,275.0
711,918.959,1846.79,726.0,651.0,563.0,272.0
712,919.126,1848.79,764.0,666.0,575.0,284.0
713,919.293,1850.79,747.0,660.0,565.0,287.0
714,919.46,1852.79,709.0,648.0,552.0,271.0
715,919.627,1854.79,713.0,642.0,566.0,268.0
716,919.794,1856.78,715.0,660.0,577.0,281.0
717,919.961,1858.77,739.0,670.0,582.0,300.0
718,920.128,1860.77,750.0,637.0,567.0,288.0
719,920.294,1862.76,729.0,627.0,572.0,269.0
720,920.461,1864.75,707.0,646.0,570.0,272.0
721,920.628,1866.74,707.0,645.0,555.0,280.0
722,920.795,1868.72,715.0,645.0,550.0,273.0
723,920.961,1870.71,725.0,673.0,549.0,275.0
724,921.128,1872.7,748.0,661.0,574.0,281.0
725,921.295,1874.68,747.0,645.0,590.0,293.0
726,921.461,1876.66,750.0,659.0,583.0,302.0
727,921.628,1878.65,730.0,654.0,579.0,289.0
728,921.794,1880.63,725.0,656.0,571.0,291.0
729,921.961,1882.61,746.0,654.0,567.0,297.0
730,922.127,1884.59,713.0,642.0,554.0,287.0
731,922.294,1886.56,706.0,638.0,560.0,280.0
732,922.46,1888.54,725.0,647.0,585.0,282.0
733,922.626,1890.51,724.0,649.0,550.0,272.0
734,922.793,1892.49,747.0,656.0,537.0,280.0
735,922.959,1894.46,758.0,653.0,562.0,287.0
736,923.125,1896.43,760.0,648.0,587.0,278.0
737,923.291,1898.4,807.0,678.0,616.0,286.0
738,923.458,1900.37,853.0,709.0,645.0,298.0
739,923.624,1902.34,865.0,728.0,663.0,307.0
740,923.79,1904.31,858.0,730.0,658.0,308.0
741,923.956,1906.27,838.0,693.0,650.0,303.0
742,924.122,1908.24,792.0,666.0,611.0,295.0
743,924.288,1910.2,772.0,667.0,591.0,292.0
744,924.454,1912.16,785.0,662.0,600.0,288.0
745,924.62,1914.12,755.0,654.0,559.0,269.0
746,924.786,1916.08,709.0,650.0,546.0,268.0
747,924.952,1918.04,718.0,657.0,572.0,287.0
748,925.117,1920.0,740.0,657.0,560.0,284.0
749,925.283,1921.96,731.0,663.0,554.0,277.0
750,925.449,1923.91,745.0,668.0,576.0,284.0
751,925.615,1925.87,754.0,660.0,589.0,288.0
752,925.78,1927.82,733.0,657.0,579.0,288.0
753,925.946,1929.77,712.0,662.0,567.0,283.0
754,926.112,1931.72,712.0,686.0,580.0,277.0
755,926.277,1933.67,736.0,693.0,591.0,295.0
756,926.443,1935.62,740.0,670.0,587.0,301.0
757,926.608,1937.57,731.0,657.0,571.0,287.0
758,926.774,1939.52,730.0,660.0,571.0,293.0
759,926.939,1941.46,717.0,636.0,572.0,275.0
760,927.105,1943.41,749.0,634.0,577.0,280.0
761,927.27,1945.35,788.0,664.0,584.0,301.0
762,927.435,1947.29,756.0,662.0,572.0,291.0
763,927.601,1949.23,708.0,667.0,588.0,292.0
764,927.766,1951.17,709.0,688.0,587.0,292.0
765,927.931,1953.11,752.0,678.0,582.0,297.0
766,928.096,1955.05,742.0,664.0,596.0,301.0
767,928.262,1956.98,723.0,634.0,578.0,281.0
768,928.427,1958.92,748.0,625.0,575.0,279.0
769,928.592,1960.85,753.0,646.0,586.0,291.0
770,928.757,1962.79,760.0,656.0,589.0,304.0
771,928.922,1964.72,755.0,669.0,583.0,299.0
772,929.087,1966.65,729.0,673.0,570.0,276.0
773,929.252,1968.58,728.0,657.0,573.0,276.0
774,929.417,1970.51,746.0,654.0,591.0,302.0
775,929.582,1972.43,760.0,677.0,596.0,316.0
776,929.747,1974.36,762.0,685.0,594.0,308.0
777,929.911,1976.28,743.0,659.0,588.0,284.0
778,930.076,1978.21,750.0,669.0,597.0,283.0
779,930.241,1980.13,770.0,679.0,596.0,297.0
780,930.406,1982.05,779.0,674.0,579.0,297.0
781,930.57,1983.97,776.0,685.0,596.0,306.0
782,930.735,1985.89,757.0,668.0,595.0,290.0
783,930.9,1987.81,767.0,686.0,596.0,302.0
784,931.064,1989.73,775.0,685.0,586.0,321.0
785,931.229,1991.64,772.0,678.0,588.0,282.0
786,931.393,1993.56,755.0,670.0,584.0,269.0
787,931.558,1995.47,751.0,649.0,580.0,296.0
788,931.722,1997.39,770.0,687.0,598.0,310.0
789,931.887,1999.3,748.0,692.0,599.0,305.0
790,932.051,2001.21,727.0,661.0,602.0,321.0
791,932.216,2003.12,744.0,661.0,582.0,313.0
792,932.38,2005.02,737.0,652.0,575.0,276.0
793,932.544,2006.93,747.0,670.0,589.0,296.0
794,932.709,2008.84,771.0,689.0,588.0,322.0
795,932.873,2010.74,743.0,670.0,578.0,308.0
796,933.037,2012.65,740.0,673.0,576.0,291.0
797,933.201,2014.55,754.0,670.0,574.0,290.0
798,933.365,2016.45,731.0,647.0,563.0,290.0
799,933.529,2018.35,710.0,637.0,563.0,287.0
800,933.693,2020.25,710.0,659.0,566.0,290.0
801,933.857,2022.15,737.0,682.0,579.0,300.0
802,934.021,2024.05,771.0,668.0,581.0,309.0
803,934.185,2025.94,752.0,650.0,561.0,299.0
804,934.349,2027.84,727.0,647.0,573.0,295.0
805,934.513,2029.73,740.0,646.0,582.0,300.0
806,934.677,2031.63,744.0,647.0,583.0,303.0
807,934.841,2033.52,746.0,667.0,592.0,307.0
808,935.005,2035.41,757.0,678.0,580.0,302.0
809,935.168,2037.3,749.0,664.0,559.0,300.0
810,935.332,2039.19,746.0,667.0,574.0,295.0
811,935.496,2041.07,760.0,674.0,588.0,281.0
812,935.66,2042.96,746.0,687.0,603.0,292.0
813,935.823,2044.84,738.0,682.0,620.0,305.0
814,935.987,2046.73,742.0,658.0,605.0,290.0
815,936.15,2048.61,739.0,678.0,603.0,297.0
816,936.314,2050.49,760.0,685.0,590.0,310.0
817,936.477,2052.38,773.0,692.0,568.0,310.0
818,936.641,2054.25,760.0,692.0,582.0,291.0
819,936.804,2056.13,749.0,638.0,586.0,276.0
820,936.968,2058.01,736.0,638.0,586.0,294.0
821,937.131,2059.89,738.0,671.0,586.0,304.0
822,937.294,2061.76,749.0,658.0,570.0,296.0
823,937.458,2063.64,749.0,645.0,557.0,286.0
824,937.621,2065.51,734.0,648.0,553.0,273.0
825,937.784,2067.38,739.0,667.0,586.0,286.0
826,937.947,2069.25,734.0,661.0,586.0,292.0
827,938.11,2071.12,725.0,642.0,558.0,268.0
828,938.274,2072.99,743.0,645.0,563.0,271.0
829,938.437,2074.86,739.0,632.0,543.0,273.0
830,938.6,2076.73,729.0,618.0,546.0,280.0
831,938.763,2078.59,741.0,642.0,576.0,294.0
832,938.926,2080.46,773.0,659.0,587.0,290.0
833,939.089,2082.32,764.0,650.0,574.0,276.0
834,939.252,2084.18,740.0,642.0,565.0,282.0
835,939.415,2086.05,743.0,646.0,591.0,295.0
836,939.578,2087.91,746.0,636.0,582.0,283.0
837,939.74,2089.77,734.0,623.0,552.0,270.0
838,939.903,2091.62,727.0,632.0,557.0,272.0
839,940.066,2093.48,738.0,668.0,573.0,285.0
840,940.229,2095.34,751.0,653.0,557.0,285.0
841,940.391,2097.19,745.0,617.0,551.0,288.0
842,940.554,2099.05,711.0,624.0,555.0,279.0
843,940.717,2100.9,705.0,623.0,555.0,268.0
844,940.879,2102.75,708.0,625.0,559.0,270.0
845,941.042,2104.6,713.0,634.0,571.0,275.0
846,941.204,2106.45,727.0,648.0,581.0,280.0
847,941.367,2108.3,737.0,675.0,591.0,284.0
848,941.529,2110.15,748.0,649.0,588.0,279.0
849,941.692,2112.0,737.0,618.0,558.0,267.0
850,941.854,2113.84,722.0,652.0,563.0,274.0
851,942.017,2115.69,732.0,654.0,574.0,287.0
852,942.179,2117.53,740.0,638.0,550.0,287.0
853,942.341,2119.37,733.0,655.0,550.0,279.0
854,942.504,2121.21,709.0,640.0,565.0,270.0
855,942.666,2123.05,727.0,618.0,558.0,281.0
856,942.828,2124.89,742.0,651.0,558.0,289.0
857,942.99,2126.73,714.0,667.0,554.0,268.0
858,943.153,2128.57,719.0,658.0,564.0,275.0
859,943.315,2130.4,724.0,653.0,565.0,291.0
860,943.477,2132.24,719.0,645.0,569.0,283.0
861,943.639,2134.07,723.0,636.0,572.0,284.0
862,943.801,2135.91,728.0,620.0,549.0,281.0
863,943.963,2137.74,722.0,617.0,536.0,271.0
864,944.125,2139.57,749.0,656.0,559.0,289.0
865,944.287,2141.4,751.0,661.0,558.0,272.0
866,944.449,2143.23,703.0,638.0,545.0,255.0
867,944.611,2145.05,712.0,646.0,560.0,272.0
868,944.772,2146.88,734.0,664.0,561.0,280.0
869,944.934,2148.71,719.0,651.0,546.0,277.0
870,945.096,2150.53,713.0,630.0,537.0,257.0
871,945.258,2152.35,709.0,608.0,548.0,252.0
872,945.419,2154.18,702.0,614.0,559.0,251.0
873,945.581,2156.0,701.0,631.0,563.0,260.0
874,945.743,2157.82,688.0,624.0,560.0,275.0
875,945.904,2159.64,672.0,616.0,546.0,265.0
876,946.066,2161.46,699.0,617.0,531.0,255.0
877,946.228,2163.27,742.0,646.0,552.0,272.0
878,946.389,2165.09,721.0,651.0,574.0,282.0
879,946.551,2166.91,708.0,629.0,572.0,287.0
880,946.712,2168.72,739.0,624.0,564.0,287.0
881,946.873,2170.53,723.0,632.0,572.0,283.0
882,947.035,2172.34,692.0,622.0,570.0,283.0
883,947.196,2174.16,688.0,616.0,544.0,280.0
884,947.358,2175.97,701.0,617.0,527.0,278.0
885,947.519,2177.77,717.0,609.0,541.0,280.0
886,947.68,2179.58,697.0,618.0,552.0,286.0
887,947.841,2181.39,713.0,641.0,578.0,297.0
888,948.003,2183.2,737.0,628.0,577.0,285.0
889,948.164,2185.0,706.0,590.0,531.0,263.0
890,948.325,2186.8,698.0,604.0,548.0,271.0
891,948.486,2188.61,710.0,636.0,582.0,278.0
892,948.647,2190.41,722.0,632.0,557.0,281.0
893,948.808,2192.21,722.0,646.0,535.0,271.0
894,948.969,2194.01,723.0,643.0,554.0,277.0
895,949.13,2195.81,717.0,614.0,546.0,282.0
896,949.291,2197.61,725.0,628.0,551.0,279.0
897,949.452,2199.4,749.0,659.0,571.0,296.0
898,949.613,2201.2,716.0,649.0,555.0,280.0
899,949.774,2202.99,731.0,626.0,539.0,274.0
900,949.935,2204.79,731.0,607.0,533.0,287.0
901,950.095,2206.58,699.0,598.0,544.0,279.0
902,950.256,2208.37,693.0,610.0,557.0,280.0
903,950.417,2210.16,698.0,616.0,565.0,285.0
904,950.578,2211.95,701.0,621.0,558.0,276.0
905,950.738,2213.74,680.0,610.0,521.0,275.0
906,950.899,2215.53,669.0,600.0,507.0,266.0
907,951.06,2217.32,681.0,613.0,516.0,265.0
908,951.22,2219.1,702.0,630.0,539.0,289.0
909,951.381,2220.89,680.0,615.0,544.0,278.0
910,951.541,2222.67,676.0,598.0,533.0,287.0
911,951.702,2224.45,725.0,628.0,565.0,319.0
912,951.862,2226.23,737.0,630.0,572.0,301.0
913,952.023,2228.01,721.0,604.0,558.0,286.0
914,952.183,2229.79,695.0,612.0,562.0,294.0
915,952.343,2231.57,685.0,612.0,562.0,296.0
916,952.504,2233.35,715.0,616.0,564.0,306.0
917,952.664,2235.13,717.0,634.0,571.0,303.0
918,952.824,2236.9,703.0,618.0,557.0,279.0
919,952.985,2238.68,700.0,607.0,550.0,271.0
920,953.145,2240.45,704.0,620.0,543.0,271.0
921,953.305,2242.22,716.0,644.0,552.0,288.0
922,953.465,2243.99,707.0,648.0,589.0,303.0
923,953.625,2245.76,700.0,621.0,576.0,287.0
924,953.785,2247.53,705.0,622.0,571.0,282.0
925,953.945,2249.3,690.0,623.0,566.0,276.0
926,954.105,2251.07,691.0,617.0,564.0,282.0
927,954.265,2252.84,686.0,602.0,560.0,286.0
928,954.425,2254.6,686.0,607.0,563.0,279.0
929,954.585,2256.37,696.0,638.0,562.0,286.0
930,954.745,2258.13,698.0,624.0,543.0,293.0
931,954.905,2259.89,709.0,637.0,566.0,307.0
932,955.065,2261.66,705.0,649.0,580.0,315.0
933,955.225,2263.42,694.0,636.0,586.0,296.0
934,955.385,2265.18,697.0,654.0,586.0,289.0
935,955.544,2266.93,703.0,633.0,563.0,288.0
936,955.704,2268.69,711.0,618.0,555.0,291.0
937,955.864,2270.45,716.0,636.0,558.0,296.0
938,956.023,2272.2,716.0,615.0,557.0,280.0
939,956.183,2273.96,702.0,628.0,571.0,295.0
940,956.343,2275.71,687.0,636.0,566.0,300.0
941,956.502,2277.47,685.0,587.0,545.0,278.0
942,956.662,2279.22,689.0,580.0,554.0,282.0
943,956.821,2280.97,698.0,630.0,587.0,297.0
944,956.981,2282.72,711.0,642.0,575.0,301.0
945,957.14,2284.47,715.0,622.0,549.0,303.0
946,957.3,2286.22,730.0,638.0,569.0,309.0
947,957.459,2287.96,730.0,624.0,590.0,304.0
948,957.619,2289.71,717.0,625.0,575.0,294.0
949,957.778,2291.45,695.0,634.0,562.0,295.0
950,957.937,2293.2,704.0,615.0,576.0,308.0
951,958.096,2294.94,710.0,638.0,569.0,304.0
952,958.256,2296.68,697.0,650.0,552.0,291.0
953,958.415,2298.42,708.0,632.0,559.0,303.0
954,958.574,2300.16,704.0,632.0,573.0,308.0
955,958.733,2301.9,717.0,634.0,579.0,312.0
956,958.892,2303.64,747.0,629.0,589.0,316.0
957,959.051,2305.38,747.0,645.0,589.0,313.0
958,959.21,2307.11,721.0,654.0,577.0,312.0
959,959.37,2308.85,728.0,645.0,565.0,321.0
960,959.529,2310.58,730.0,634.0,552.0,303.0
961,959.688,2312.32,720.0,626.0,554.0,279.0
962,959.846,2314.05,738.0,647.0,563.0,299.0
963,960.005,2315.78,734.0,645.0,571.0,303.0
964,960.164,2317.51,724.0,642.0,583.0,302.0
965,960.323,2319.24,727.0,645.0,591.0,309.0
966,960.482,2320.97,727.0,642.0,586.0,299.0
967,960.641,2322.7,711.0,642.0,563.0,292.0
968,960.8,2324.42,725.0,635.0,578.0,302.0
969,960.958,2326.15,750.0,644.0,589.0,312.0
970,961.117,2327.87,756.0,650.0,590.0,317.0
971,961.276,2329.6,757.0,645.0,591.0,309.0
972,961.434,2331.32,736.0,646.0,571.0,300.0
973,961.593,2333.04,727.0,649.0,569.0,293.0
974,961.751,2334.76,742.0,641.0,555.0,288.0
975,961.91,2336.48,744.0,641.0,551.0,300.0
976,962.069,2338.2,729.0,639.0,574.0,301.0
977,962.227,2339.92,747.0,659.0,589.0,311.0
978,962.386,2341.64,746.0,665.0,580.0,319.0
979,962.544,2343.35,727.0,679.0,585.0,305.0
980,962.702,2345.07,738.0,709.0,600.0,303.0
981,962.861,2346.78,739.0,688.0,577.0,297.0
982,963.019,2348.5,774.0,682.0,596.0,300.0
983,963.177,2350.21,813.0,699.0,609.0,317.0
984,963.336,2351.92,801.0,711.0,606.0,328.0
985,963.494,2353.63,802.0,716.0,622.0,327.0
986,963.652,2355.34,833.0,727.0,619.0,314.0
987,963.81,2357.05,847.0,716.0,615.0,301.0
988,963.969,2358.76,832.0,691.0,611.0,308.0
989,964.127,2360.46,829.0,703.0,614.0,324.0
990,964.285,2362.17,804.0,699.0,600.0,304.0
991,964.443,2363.87,797.0,691.0,605.0,281.0
992,964.601,2365.58,818.0,713.0,617.0,292.0
993,964.759,2367.28,831.0,734.0,612.0,298.0
994,964.917,2368.98,843.0,737.0,626.0,293.0
995,965.075,2370.68,868.0,737.0,635.0,307.0
996,965.233,2372.38,874.0,741.0,625.0,309.0
997,965.391,2374.08,857.0,757.0,639.0,299.0
998,965.549,2375.78,863.0,748.0,650.0,292.0
999,965.707,2377.48,890.0,730.0,652.0,281.0
1000,965.865,2379.17,931.0,750.0,684.0,293.0
1001,966.022,2380.87,960.0,767.0,704.0,295.0
1002,966.18,2382.56,977.0,799.0,713.0,292.0
1003,966.338,2384.26,1027.0,861.0,748.0,318.0
1004,966.496,2385.95,1065.0,882.0,779.0,324.0
1005,966.653,2387.64,1043.0,842.0,775.0,305.0
1006,966.811,2389.33,1054.0,849.0,771.0,309.0
1007,966.969,2391.02,1121.0,908.0,815.0,344.0
1008,967.126,2392.71,1118.0,887.0,794.0,326.0
1009,967.284,2394.4,1095.0,876.0,763.0,293.0
1010,967.441,2396.09,1103.0,906.0,783.0,295.0
1011,967.599,2397.77,1089.0,906.0,769.0,284.0
1012,967.756,2399.46,1096.0,934.0,766.0,288.0
1013,967.914,2401.14,1113.0,945.0,766.0,281.0
1014,968.071,2402.83,1118.0,957.0,773.0,274.0
1015,968.229,2404.51,1146.0,973.0,816.0,302.0
1016,968.386,2406.19,1158.0,986.0,839.0,304.0
1017,968.543,2407.87,1176.0,998.0,824.0,294.0
1018,968.701,2409.55,1201.0,991.0,820.0,290.0
1019,968.858,2411.23,1201.0,989.0,821.0,281.0
1020,969.015,2412.91,1186.0,979.0,821.0,283.0
1021,969.172,2414.58,1189.0,968.0,829.0,281.0
1022,969.33,2416.26,1216.0,1022.0,844.0,286.0
1023,969.487,2417.94,1243.0,1059.0,841.0,279.0
1024,969.644,2419.61,1269.0,1040.0,871.0,282.0
1025,969.801,2421.28,1263.0,1052.0,896.0,293.0
1026,969.958,2422.96,1281.0,1082.0,931.0,296.0
1027,970.115,2424.63,1276.0,1083.0,944.0,286.0
1028,970.272,2426.3,1286.0,1089.0,924.0,275.0
1029,970.429,2427.97,1322.0,1142.0,968.0,302.0
1030,970.586,2429.64,1307.0,1149.0,953.0,305.0
1031,970.743,2431.3,1340.0,1120.0,931.0,276.0
1032,970.9,2432.97,1399.0,1120.0,971.0,264.0
1033,971.057,2434.64,1443.0,1166.0,1003.0,297.0
1034,971.214,2436.3,1459.0,1168.0,1010.0,315.0
1035,971.371,2437.97,1436.0,1164.0,990.0,301.0
1036,971.527,2439.63,1476.0,1220.0,1014.0,311.0
1037,971.684,2441.29,1521.0,1240.0,1054.0,309.0
1038,971.841,2442.96,1531.0,1255.0,1068.0,302.0
1039,971.998,2444.62,1552.0,1283.0,1087.0,315.0
1040,972.154,2446.28,1579.0,1279.0,1098.0,301.0
1041,972.311,2447.93,1611.0,1313.0,1115.0,290.0
1042,972.468,2449.59,1626.0,1359.0,1127.0,293.0
1043,972.624,2451.25,1668.0,1374.0,1128.0,303.0
1044,972.781,2452.91,1704.0,1376.0,1132.0,305.0
1045,972.937,2454.56,1754.0,1390.0,1154.0,298.0
1046,973.094,2456.22,1795.0,1442.0,1169.0,314.0
1047,973.25,2457.87,1788.0,1422.0,1192.0,323.0
1048,973.407,2459.52,1795.0,1405.0,1197.0,327.0
1049,973.563,2461.17,1756.0,1428.0,1182.0,316.0
1050,973.72,2462.82,1737.0,1444.0,1196.0,312.0
1051,973.876,2464.47,1784.0,1465.0,1228.0,321.0
1052,974.032,2466.12,1738.0,1441.0,1208.0,310.0
1053,974.189,2467.77,1731.0,1461.0,1174.0,315.0
1054,974.345,2469.42,1784.0,1479.0,1194.0,335.0
1055,974.501,2471.07,1731.0,1438.0,1193.0,315.0
1056,974.658,2472.71,1715.0,1435.0,1171.0,293.0
1057,974.814,2474.36,1737.0,1431.0,1165.0,297.0
1058,974.97,2476.0,1748.0,1398.0,1174.0,296.0
1059,975.126,2477.64,1774.0,1417.0,1181.0,308.0
1060,975.282,2479.29,1759.0,1447.0,1167.0,320.0
1061,975.438,2480.93,1712.0,1406.0,1152.0,315.0
1062,975.594,2482.57,1713.0,1383.0,1169.0,307.0
1063,975.751,2484.21,1716.0,1390.0,1169.0,304.0
1064,975.907,2485.84,1700.0,1409.0,1147.0,288.0
1065,976.063,2487.48,1722.0,1418.0,1159.0,298.0
1066,976.219,2489.12,1685.0,1405.0,1168.0,326.0
1067,976.374,2490.75,1658.0,1370.0,1148.0,327.0
1068,976.53,2492.39,1674.0,1368.0,1143.0,317.0
1069,976.686,2494.02,1647.0,1367.0,1158.0,313.0
1070,976.842,2495.66,1638.0,1350.0,1148.0,315.0
1071,976.998,2497.29,1621.0,1366.0,1124.0,309.0
1072,977.154,2498.92,1587.0,1329.0,1100.0,304.0
1073,977.31,2500.55,1581.0,1305.0,1095.0,302.0
1074,977.465,2502.18,1567.0,1320.0,1100.0,315.0
1075,977.621,2503.81,1546.0,1269.0,1082.0,326.0
1076,977.777,2505.44,1543.0,1248.0,1063.0,329.0
1077,977.932,2507.07,1533.0,1273.0,1072.0,323.0
1078,978.088,2508.69,1517.0,1238.0,1054.0,307.0
1079,978.244,2510.32,1487.0,1223.0,1031.0,304.0
1080,978.399,2511.94,1496.0,1229.0,1025.0,306.0
1081,978.555,2513.57,1488.0,1231.0,1029.0,304.0
1082,978.71,2515.19,1470.0,1218.0,1042.0,295.0
1083,978.866,2516.81,1492.0,1185.0,1003.0,280.0
1084,979.021,2518.43,1444.0,1174.0,984.0,292.0
1085,979.177,2520.05,1409.0,1163.0,1011.0,305.0
1086,979.332,2521.67,1430.0,1187.0,1015.0,311.0
1087,979.488,2523.29,1453.0,1193.0,985.0,319.0
1088,979.643,2524.91,1439.0,1155.0,952.0,307.0
1089,979.798,2526.53,1384.0,1134.0,944.0,299.0
1090,979.954,2528.14,1373.0,1123.0,956.0,303.0
1091,980.109,2529.76,1360.0,1110.0,934.0,303.0
1092,980.264,2531.37,1348.0,1118.0,934.0,302.0
1093,980.419,2532.98,1367.0,1153.0,955.0,318.0
1094,980.575,2534.6,1345.0,1147.0,910.0,294.0
1095,980.73,2536.21,1302.0,1092.0,884.0,281.0
1096,980.885,2537.82,1296.0,1055.0,885.0,293.0
1097,981.04,2539.43,1296.0,1056.0,856.0,288.0
1098,981.195,2541.04,1283.0,1071.0,865.0,297.0
1099,981.35,2542.65,1257.0,1063.0,875.0,298.0
1100,981.505,2544.25,1266.0,1055.0,874.0,302.0
1101,981.66,2545.86,1262.0,1085.0,896.0,308.0
1102,981.815,2547.47,1270.0,1090.0,919.0,311.0
1103,981.97,2549.07,1277.0,1053.0,910.0,307.0
1104,982.125,2550.68,1213.0,1020.0,861.0,292.0
1105,982.28,2552.28,1208.0,1021.0,846.0,277.0
1106,982.435,2553.88,1245.0,1038.0,855.0,287.0
1107,982.59,2555.48,1243.0,1056.0,851.0,291.0
1108,982.745,2557.08,1240.0,1054.0,851.0,305.0
1109,982.9,2558.68,1231.0,1014.0,857.0,309.0
1110,983.054,2560.28,1224.0,1021.0,876.0,300.0
1111,983.209,2561.88,1228.0,1053.0,870.0,300.0
1112,983.364,2563.48,1218.0,1039.0,828.0,296.0
1113,983.519,2565.08,1261.0,1040.0,860.0,305.0
1114,983.673,2566.67,1254.0,1047.0,902.0,299.0
1115,983.828,2568.27,1231.0,1056.0,880.0,277.0
1116,983.982,2569.86,1255.0,1042.0,870.0,268.0
1117,984.137,2571.45,1256.0,1029.0,890.0,277.0
1118,984.292,2573.05,1278.0,1063.0,897.0,279.0
1119,984.446,2574.64,1258.0,1049.0,884.0,280.0
1120,984.601,2576.23,1206.0,1031.0,864.0,278.0
1121,984.755,2577.82,1220.0,1028.0,854.0,290.0
1122,984.91,2579.41,1220.0,995.0,842.0,300.0
1123,985.064,2581.0,1183.0,976.0,829.0,283.0
1124,985.219,2582.58,1179.0,971.0,837.0,278.0
1125,985.373,2584.17,1174.0,956.0,840.0,286.0
1126,985.527,2585.75,1129.0,945.0,809.0,279.0
1127,985.682,2587.34,1127.0,945.0,808.0,265.0
1128,985.836,2588.92,1135.0,933.0,822.0,277.0
1129,985.99,2590.51,1102.0,935.0,796.0,289.0
1130,986.144,2592.09,1087.0,954.0,774.0,276.0
1131,986.299,2593.67,1094.0,943.0,761.0,278.0
1132,986.453,2595.25,1093.0,939.0,769.0,300.0
1133,986.607,2596.83,1059.0,960.0,777.0,303.0
1134,986.761,2598.41,1061.0,927.0,782.0,287.0
1135,986.915,2599.99,1087.0,928.0,789.0,282.0
1136,987.069,2601.57,1059.0,945.0,763.0,275.0
1137,987.224,2603.14,1015.0,910.0,740.0,261.0
1138,987.378,2604.72,1034.0,878.0,747.0,265.0
1139,987.532,2606.3,1069.0,880.0,751.0,288.0
1140,987.686,2607.87,1038.0,902.0,748.0,292.0
1141,987.84,2609.44,1029.0,892.0,743.0,285.0
1142,987.994,2611.02,1039.0,867.0,741.0,287.0
1143,988.147,2612.59,986.0,851.0,723.0,263.0
1144,988.301,2614.16,985.0,851.0,721.0,267.0
1145,988.455,2615.73,1045.0,844.0,727.0,291.0
1146,988.609,2617.3,1040.0,847.0,709.0,279.0
1147,988.763,2618.87,1023.0,844.0,731.0,287.0
1148,988.917,2620.43,1010.0,850.0,754.0,292.0
1149,989.07,2622.0,971.0,866.0,712.0,265.0
1150,989.224,2623.57,979.0,850.0,691.0,263.0
1151,989.378,2625.13,985.0,831.0,727.0,281.0
1152,989.532,2626.7,964.0,835.0,734.0,304.0
1153,989.685,2628.26,968.0,831.0,709.0,298.0
1154,989.839,2629.82,987.0,814.0,705.0,280.0
1155,989.993,2631.39,991.0,799.0,726.0,292.0
1156,990.146,2632.95,978.0,788.0,708.0,286.0
1157,990.3,2634.51,958.0,803.0,684.0,278.0
1158,990.453,2636.07,934.0,807.0,689.0,279.0
1159,990.607,2637.63,901.0,787.0,662.0,271.0
1160,990.76,2639.19,893.0,779.0,669.0,278.0
1161,990.914,2640.74,897.0,776.0,676.0,288.0
1162,991.067,2642.3,898.0,775.0,664.0,282.0
1163,991.221,2643.86,903.0,781.0,656.0,285.0
1164,991.374,2645.41,888.0,780.0,655.0,294.0
1165,991.527,2646.97,896.0,759.0,676.0,288.0
1166,991.681,2648.52,894.0,769.0,689.0,292.0
1167,991.834,2650.07,895.0,793.0,682.0,299.0
1168,991.987,2651.62,886.0,766.0,661.0,287.0
1169,992.14,2653.17,871.0,774.0,658.0,281.0
1170,992.294,2654.72,882.0,777.0,669.0,282.0
1171,992.447,2656.27,870.0,737.0,662.0,278.0
1172,992.6,2657.82,864.0,732.0,635.0,282.0
1173,992.753,2659.37,870.0,729.0,621.0,284.0
1174,992.906,2660.92,875.0,723.0,640.0,295.0
1175,993.06,2662.46,869.0,740.0,636.0,291.0
1176,993.213,2664.01,869.0,758.0,630.0,297.0
1177,993.366,2665.56,885.0,748.0,654.0,315.0
1178,993.519,2667.1,871.0,713.0,635.0,291.0
1179,993.672,2668.64,826.0,696.0,627.0,277.0
1180,993.825,2670.18,822.0,717.0,634.0,265.0
1181,993.978,2671.73,827.0,731.0,621.0,273.0
1182,994.131,2673.27,822.0,721.0,625.0,285.0
1183,994.283,2674.81,810.0,692.0,613.0,274.0
1184,994.436,2676.35,796.0,682.0,611.0,280.0
1185,994.589,2677.89,799.0,706.0,628.0,293.0
1186,994.742,2679.42,825.0,736.0,621.0,284.0
1187,994.895,2680.96,822.0,727.0,615.0,270.0
1188,995.048,2682.5,802.0,677.0,606.0,262.0
1189,995.2,2684.03,807.0,670.0,604.0,272.0
1190,995.353,2685.57,788.0,682.0,603.0,286.0
1191,995.506,2687.1,778.0,678.0,589.0,278.0
1192,995.659,2688.63,786.0,679.0,580.0,277.0
1193,995.811,2690.17,778.0,672.0,572.0,273.0
1194,995.964,2691.7,773.0,658.0,577.0,267.0
1195,996.116,2693.23,772.0,666.0,591.0,283.0
1196,996.269,2694.76,776.0,675.0,600.0,293.0
1197,996.422,2696.29,773.0,654.0,598.0,295.0
1198,996.574,2697.82,756.0,643.0,582.0,289.0
1199,996.727,2699.34,749.0,660.0,586.0,290.0
1200,996.879,2700.87,718.0,656.0,584.0,282.0
1201,997.032,2702.4,723.0,649.0,568.0,278.0
1202,997.184,2703.92,738.0,642.0,566.0,291.0
1203,997.336,2705.45,719.0,633.0,563.0,275.0
1204,997.489,2706.97,729.0,633.0,559.0,281.0
1205,997.641,2708.5,720.0,621.0,542.0,288.0
1206,997.794,2710.02,700.0,606.0,536.0,268.0
1207,997.946,2711.54,711.0,620.0,546.0,288.0
1208,998.098,2713.06,716.0,645.0,557.0,310.0
1209,998.25,2714.58,698.0,622.0,561.0,284.0
1210,998.403,2716.1,688.0,602.0,556.0,283.0
1211,998.555,2717.62,709.0,617.0,542.0,300.0
1212,998.707,2719.14,690.0,611.0,532.0,294.0
1213,998.859,2720.65,672.0,597.0,534.0,285.0
1214,999.011,2722.17,676.0,607.0,544.0,278.0
1215,999.164,2723.69,676.0,593.0,553.0,278.0
1216,999.316,2725.2,684.0,593.0,549.0,297.0
1217,999.468,2726.72,664.0,600.0,536.0,297.0
1218,999.62,2728.23,644.0,573.0,535.0,287.0
1219,999.772,2729.74,637.0,559.0,532.0,278.0
1220,999.924,2731.25,644.0,570.0,511.0,272.0
1221,1000.08,2732.77,656.0,594.0,519.0,298.0
1222,1000.23,2734.28,648.0,581.0,528.0,301.0
1223,1000.38,2735.79,648.0,579.0,521.0,299.0
1224,1000.53,2737.29,651.0,602.0,509.0,306.0
1225,1000.68,2738.8,636.0,577.0,508.0,307.0
1226,1000.84,2740.31,639.0,548.0,507.0,297.0
1227,1000.99,2741.82,649.0,546.0,499.0,271.0
1228,1001.14,2743.32,637.0,568.0,503.0,276.0
1229,1001.29,2744.83,616.0,555.0,504.0,288.0
1230,1001.44,2746.33,627.0,537.0,491.0,293.0
1231,1001.59,2747.84,631.0,554.0,491.0,288.0
1232,1001.75,2749.34,615.0,549.0,504.0,276.0
1233,1001.9,2750.84,607.0,554.0,490.0,279.0
1234,1002.05,2752.34,609.0,556.0,478.0,296.0
1235,1002.2,2753.84,601.0,537.0,476.0,293.0
1236,1002.35,2755.34,604.0,529.0,474.0,281.0
1237,1002.5,2756.84,609.0,533.0,480.0,280.0
1238,1002.66,2758.34,587.0,524.0,492.0,282.0
1239,1002.81,2759.84,590.0,530.0,500.0,285.0
1240,1002.96,2761.34,571.0,524.0,481.0,282.0
1241,1003.11,2762.83,563.0,527.0,467.0,279.0
1242,1003.26,2764.33,598.0,550.0,484.0,286.0
1243,1003.41,2765.83,625.0,545.0,488.0,305.0
1244,1003.56,2767.32,606.0,524.0,485.0,299.0
1245,1003.72,2768.81,554.0,502.0,461.0,280.0
1246,1003.87,2770.31,567.0,519.0,455.0,283.0
1247,1004.02,2771.8,580.0,529.0,479.0,280.0
1248,1004.17,2773.29,564.0,507.0,466.0,277.0
1249,1004.32,2774.78,586.0,505.0,468.0,291.0
1250,1004.47,2776.27,584.0,512.0,475.0,295.0
1251,1004.62,2777.76,565.0,511.0,471.0,284.0
1252,1004.78,2779.25,549.0,497.0,467.0,272.0
1253,1004.93,2780.74,525.0,484.0,460.0,265.0
1254,1005.08,2782.22,533.0,494.0,439.0,268.0
1255,1005.23,2783.71,564.0,500.0,426.0,279.0
1256,1005.38,2785.2,582.0,494.0,443.0,291.0
1257,1005.53,2786.68,584.0,513.0,461.0,288.0
1258,1005.68,2788.16,581.0,530.0,466.0,282.0
1259,1005.83,2789.65,563.0,508.0,453.0,275.0
1260,1005.98,2791.13,539.0,468.0,431.0,263.0
1261,1006.14,2792.61,543.0,481.0,444.0,287.0
1262,1006.29,2794.09,550.0,515.0,457.0,287.0
1263,1006.44,2795.58,536.0,508.0,453.0,279.0
1264,1006.59,2797.06,553.0,509.0,476.0,296.0
1265,1006.74,2798.53,561.0,483.0,466.0,283.0
1266,1006.89,2800.01,547.0,481.0,450.0,276.0
1267,1007.04,2801.49,539.0,505.0,448.0,292.0
1268,1007.19,2802.97,546.0,492.0,450.0,302.0
1269,1007.34,2804.44,557.0,479.0,459.0,295.0
1270,1007.49,2805.92,539.0,477.0,441.0,282.0
1271,1007.64,2807.4,513.0,477.0,417.0,269.0
1272,1007.8,2808.87,521.0,472.0,420.0,267.0
1273,1007.95,2810.34,531.0,482.0,441.0,279.0
1274,1008.1,2811.82,535.0,478.0,461.0,286.0
1275,1008.25,2813.29,531.0,464.0,445.0,274.0
1276,1008.4,2814.76,500.0,467.0,440.0,273.0
1277,1008.55,2816.23,510.0,477.0,454.0,288.0
1278,1008.7,2817.7,524.0,484.0,433.0,277.0
1279,1008.85,2819.17,507.0,475.0,425.0,265.0
1280,1009.0,2820.64,494.0,477.0,446.0,271.0
1281,1009.15,2822.11,494.0,472.0,442.0,282.0
1282,1009.3,2823.57,509.0,462.0,426.0,297.0
1283,1009.45,2825.04,535.0,479.0,442.0,313.0
1284,1009.6,2826.51,529.0,474.0,439.0,295.0
1285,1009.75,2827.97,514.0,476.0,455.0,286.0
1286,1009.9,2829.44,520.0,494.0,462.0,296.0
1287,1010.05,2830.9,531.0,487.0,444.0,288.0
1288,1010.21,2832.36,524.0,466.0,438.0,281.0
1289,1010.36,2833.83,521.0,471.0,424.0,290.0
1290,1010.51,2835.29,558.0,502.0,458.0,309.0
1291,1010.66,2836.75,547.0,477.0,458.0,291.0
1292,1010.81,2838.21,518.0,454.0,424.0,274.0
1293,1010.96,2839.67,528.0,456.0,424.0,293.0
1294,1011.11,2841.13,518.0,438.0,419.0,296.0
1295,1011.26,2842.59,517.0,453.0,431.0,294.0
1296,1011.41,2844.05,499.0,449.0,429.0,284.0
1297,1011.56,2845.5,463.0,418.0,411.0,269.0
1298,1011.71,2846.96,482.0,427.0,406.0,279.0
1299,1011.86,2848.41,512.0,437.0,400.0,284.0
1300,1012.01,2849.87,492.0,428.0,396.0,275.0
1301,1012.16,2851.32,490.0,434.0,404.0,282.0
1302,1012.31,2852.78,502.0,434.0,420.0,282.0
1303,1012.46,2854.23,488.0,430.0,413.0,268.0
1304,1012.61,2855.68,483.0,439.0,413.0,279.0
1305,1012.76,2857.13,490.0,449.0,426.0,285.0
1306,1012.91,2858.59,486.0,444.0,413.0,276.0
1307,1013.06,2860.04,502.0,455.0,405.0,266.0
1308,1013.21,2861.49,517.0,470.0,418.0,278.0
1309,1013.36,2862.93,503.0,468.0,422.0,293.0
1310,1013.51,2864.38,494.0,459.0,410.0,282.0
1311,1013.66,2865.83,491.0,438.0,404.0,276.0
1312,1013.81,2867.28,490.0,441.0,428.0,277.0
1313,1013.96,2868.72,498.0,445.0,436.0,273.0
1314,1014.11,2870.17,532.0,469.0,440.0,282.0
1315,1014.26,2871.61,590.0,515.0,460.0,284.0
1316,1014.41,2873.06,675.0,564.0,508.0,270.0
1317,1014.56,2874.5,832.0,649.0,586.0,270.0
1318,1014.71,2875.95,1006.0,737.0,650.0,275.0
1319,1014.86,2877.39,1113.0,804.0,719.0,290.0
1320,1015.01,2878.83,1185.0,854.0,767.0,294.0
1321,1015.16,2880.27,1209.0,898.0,795.0,285.0
1322,1015.31,2881.71,1162.0,878.0,778.0,275.0
1323,1015.46,2883.15,1037.0,783.0,719.0,275.0
1324,1015.61,2884.59,911.0,719.0,649.0,293.0
1325,1015.76,2886.03,822.0,656.0,580.0,300.0
1326,1015.9,2887.47,733.0,591.0,553.0,295.0
1327,1016.05,2888.9,679.0,577.0,541.0,293.0
1328,1016.2,2890.34,618.0,542.0,497.0,290.0
1329,1016.35,2891.77,552.0,488.0,460.0,284.0
1330,1016.5,2893.21,515.0,462.0,437.0,298.0
1331,1016.65,2894.64,500.0,468.0,430.0,298.0
1332,1016.8,2896.08,510.0,481.0,445.0,290.0
1333,1016.95,2897.51,500.0,470.0,415.0,288.0
1334,1017.1,2898.94,475.0,454.0,396.0,273.0
1335,1017.25,2900.38,474.0,448.0,415.0,280.0
1336,1017.4,2901.81,489.0,436.0,409.0,284.0
1337,1017.55,2903.24,487.0,449.0,424.0,282.0
1338,1017.7,2904.67,484.0,471.0,441.0,295.0
1339,1017.85,2906.1,481.0,447.0,423.0,304.0
1340,1018.0,2907.52,469.0,436.0,418.0,290.0
1341,1018.15,2908.95,475.0,421.0,387.0,261.0
1342,1018.3,2910.38,489.0,424.0,397.0,284.0
1343,1018.44,2911.81,483.0,437.0,422.0,289.0
1344,1018.59,2913.23,486.0,437.0,406.0,269.0
1345,1018.74,2914.66,500.0,458.0,420.0,284.0
1346,1018.89,2916.08,498.0,469.0,429.0,292.0
1347,1019.04,2917.51,486.0,449.0,410.0,288.0
1348,1019.19,2918.93,481.0,431.0,399.0,263.0
1349,1019.34,2920.35,497.0,446.0,408.0,257.0
1350,1019.49,2921.78,502.0,439.0,410.0,278.0
1351,1019.64,2923.2,482.0,434.0,402.0,264.0
1352,1019.79,2924.62,496.0,441.0,405.0,272.0
1353,1019.94,2926.04,510.0,431.0,417.0,304.0
1354,1020.08,2927.46,490.0,442.0,432.0,278.0
1355,1020.23,2928.88,485.0,437.0,412.0,250.0
1356,1020.38,2930.29,480.0,439.0,403.0,272.0
1357,1020.53,2931.71,462.0,453.0,405.0,288.0
1358,1020.68,2933.13,477.0,453.0,403.0,290.0
1359,1020.83,2934.55,499.0,459.0,427.0,301.0
1360,1020.98,2935.96,496.0,455.0,434.0,300.0
1361,1021.13,2937.38,504.0,445.0,434.0,284.0
1362,1021.28,2938.79,496.0,458.0,417.0,277.0
1363,1021.42,2940.21,472.0,450.0,385.0,265.0
1364,1021.57,2941.62,469.0,436.0,385.0,254.0
1365,1021.72,2943.03,473.0,434.0,405.0,265.0
1366,1021.87,2944.44,475.0,429.0,412.0,272.0
1367,1022.02,2945.86,472.0,440.0,416.0,276.0
1368,1022.17,2947.27,492.0,433.0,417.0,278.0
1369,1022.32,2948.68,499.0,432.0,412.0,269.0
1370,1022.47,2950.09,488.0,446.0,412.0,274.0
1371,1022.61,2951.5,490.0,448.0,408.0,290.0
1372,1022.76,2952.9,503.0,433.0,414.0,295.0
1373,1022.91,2954.31,515.0,445.0,423.0,303.0
1374,1023.06,2955.72,497.0,470.0,430.0,305.0
1375,1023.21,2957.13,485.0,440.0,420.0,287.0
1376,1023.36,2958.53,473.0,439.0,395.0,279.0
1377,1023.51,2959.94,481.0,457.0,413.0,279.0
1378,1023.65,2961.34,481.0,443.0,425.0,279.0
1379,1023.8,2962.75,477.0,451.0,415.0,287.0
1380,1023.95,2964.15,498.0,456.0,407.0,293.0
1381,1024.1,2965.55,473.0,432.0,394.0,265.0
1382,1024.25,2966.95,453.0,414.0,406.0,263.0
1383,1024.4,2968.36,453.0,435.0,410.0,275.0
1384,1024.54,2969.76,484.0,447.0,415.0,284.0
1385,1024.69,2971.16,485.0,429.0,406.0,283.0
1386,1024.84,2972.56,475.0,448.0,412.0,287.0
1387,1024.99,2973.96,502.0,459.0,432.0,309.0
1388,1025.14,2975.36,491.0,461.0,421.0,300.0
1389,1025.29,2976.75,490.0,454.0,429.0,297.0
1390,1025.43,2978.15,479.0,437.0,409.0,292.0
1391,1025.58,2979.55,470.0,464.0,407.0,304.0
1392,1025.73,2980.94,464.0,452.0,413.0,279.0
1393,1025.88,2982.34,451.0,412.0,388.0,248.0
1394,1026.03,2983.73,469.0,418.0,391.0,263.0
1395,1026.17,2985.13,468.0,430.0,407.0,263.0
1396,1026.32,2986.52,447.0,422.0,398.0,266.0
1397,1026.47,2987.92,478.0,445.0,405.0,296.0
1398,1026.62,2989.31,503.0,449.0,414.0,298.0
1399,1026.77,2990.7,488.0,434.0,404.0,277.0
1400,1026.92,2992.09,473.0,435.0,405.0,289.0
1401,1027.06,2993.48,470.0,434.0,399.0,291.0
1402,1027.21,2994.87,475.0,435.0,403.0,280.0
1403,1027.36,2996.26,462.0,444.0,406.0,294.0
1404,1027.51,2997.65,449.0,443.0,396.0,288.0
1405,1027.66,2999.04,473.0,421.0,392.0,279.0
1406,1027.8,3000.43,457.0,416.0,382.0,263.0
1407,1027.95,3001.82,434.0,425.0,378.0,249.0
1408,1028.1,3003.2,464.0,426.0,394.0,280.0
1409,1028.25,3004.59,461.0,441.0,401.0,289.0
1410,1028.39,3005.97,451.0,440.0,396.0,284.0
1411,1028.54,3007.36,467.0,424.0,400.0,281.0
1412,1028.69,3008.74,467.0,418.0,395.0,274.0
1413,1028.84,3010.13,446.0,433.0,385.0,282.0
1414,1028.99,3011.51,441.0,432.0,385.0,268.0
1415,1029.13,3012.89,462.0,433.0,394.0,268.0
1416,1029.28,3014.28,448.0,439.0,390.0,272.0
1417,1029.43,3015.66,443.0,420.0,388.0,277.0
1418,1029.58,3017.04,475.0,419.0,416.0,290.0
1419,1029.72,3018.42,457.0,415.0,397.0,277.0
1420,1029.87,3019.8,447.0,418.0,385.0,278.0
1421,1030.02,3021.18,486.0,437.0,412.0,280.0
1422,1030.17,3022.56,483.0,440.0,414.0,287.0
1423,1030.31,3023.93,476.0,437.0,409.0,310.0
1424,1030.46,3025.31,472.0,417.0,388.0,297.0
1425,1030.61,3026.69,450.0,395.0,379.0,272.0
1426,1030.76,3028.06,462.0,419.0,378.0,277.0
1427,1030.9,3029.44,459.0,418.0,373.0,281.0
1428,1031.05,3030.81,450.0,403.0,385.0,284.0
1429,1031.2,3032.19,447.0,434.0,390.0,281.0
1430,1031.35,3033.56,432.0,435.0,395.0,272.0
1431,1031.49,3034.94,421.0,413.0,387.0,277.0
1432,1031.64,3036.31,425.0,427.0,374.0,280.0
1433,1031.79,3037.68,446.0,435.0,387.0,286.0
1434,1031.94,3039.05,450.0,408.0,394.0,274.0
1435,1032.08,3040.43,462.0,413.0,402.0,278.0
1436,1032.23,3041.8,475.0,437.0,425.0,297.0
1437,1032.38,3043.17,443.0,404.0,399.0,268.0
1438,1032.53,3044.54,438.0,398.0,377.0,264.0
1439,1032.67,3045.9,438.0,411.0,378.0,265.0
1440,1032.82,3047.27,435.0,413.0,371.0,262.0
1441,1032.97,3048.64,448.0,419.0,379.0,270.0
1442,1033.12,3050.01,447.0,419.0,396.0,272.0
1443,1033.26,3051.37,432.0,404.0,403.0,270.0
1444,1033.41,3052.74,425.0,390.0,392.0,267.0
1445,1033.56,3054.11,432.0,391.0,379.0,270.0
1446,1033.7,3055.47,450.0,401.0,385.0,284.0
1447,1033.85,3056.84,450.0,400.0,382.0,296.0
1448,1034.0,3058.2,428.0,396.0,376.0,276.0
1449,1034.15,3059.56,436.0,400.0,393.0,273.0
1450,1034.29,3060.93,448.0,419.0,389.0,294.0
1451,1034.44,3062.29,438.0,423.0,386.0,295.0
1452,1034.59,3063.65,413.0,394.0,376.0,266.0
1453,1034.73,3065.01,422.0,384.0,370.0,260.0
1454,1034.88,3066.37,441.0,407.0,412.0,274.0
1455,1035.03,3067.73,437.0,439.0,421.0,288.0
1456,1035.17,3069.09,427.0,403.0,383.0,277.0
1457,1035.32,3070.45,428.0,384.0,368.0,256.0
1458,1035.47,3071.81,439.0,404.0,366.0,250.0
1459,1035.62,3073.17,441.0,399.0,371.0,255.0
1460,1035.76,3074.52,434.0,393.0,380.0,268.0
1461,1035.91,3075.88,406.0,383.0,377.0,253.0
1462,1036.06,3077.24,412.0,383.0,380.0,249.0
1463,1036.2,3078.59,414.0,385.0,369.0,252.0
1464,1036.35,3079.95,422.0,396.0,363.0,256.0
1465,1036.5,3081.3,433.0,386.0,365.0,267.0
1466,1036.64,3082.66,404.0,354.0,348.0,248.0
1467,1036.79,3084.01,401.0,365.0,343.0,240.0
1468,1036.94,3085.36,399.0,376.0,344.0,245.0
1469,1037.08,3086.72,401.0,382.0,348.0,239.0
1470,1037.23,3088.07,399.0,378.0,348.0,242.0
1471,1037.38,3089.42,399.0,369.0,343.0,251.0
1472,1037.52,3090.77,403.0,376.0,356.0,245.0
1473,1037.67,3092.12,393.0,374.0,362.0,236.0
1474,1037.82,3093.47,409.0,391.0,362.0,264.0
1475,1037.96,3094.82,415.0,397.0,371.0,279.0
1476,1038.11,3096.17,401.0,373.0,368.0,261.0
1477,1038.26,3097.52,420.0,387.0,380.0,266.0
1478,1038.4,3098.86,417.0,383.0,379.0,259.0
1479,1038.55,3100.21,386.0,360.0,338.0,243.0
1480,1038.7,3101.56,389.0,372.0,339.0,260.0
1481,1038.84,3102.9,398.0,382.0,376.0,272.0
1482,1038.99,3104.25,404.0,388.0,364.0,273.0
1483,1039.14,3105.59,394.0,384.0,347.0,256.0
1484,1039.28,3106.94,381.0,371.0,357.0,251.0
1485,1039.43,3108.28,402.0,365.0,362.0,259.0
1486,1039.57,3109.63,396.0,369.0,354.0,253.0
1487,1039.72,3110.97,393.0,368.0,351.0,264.0
1488,1039.87,3112.31,394.0,364.0,351.0,265.0
1489,1040.01,3113.65,392.0,355.0,343.0,253.0
1490,1040.16,3115.0,404.0,348.0,356.0,259.0
1491,1040.31,3116.34,382.0,362.0,347.0,269.0
1492,1040.45,3117.68,381.0,382.0,336.0,255.0
1493,1040.6,3119.02,387.0,376.0,352.0,242.0
1494,1040.74,3120.36,385.0,356.0,347.0,252.0
1495,1040.89,3121.7,378.0,370.0,344.0,265.0
1496,1041.04,3123.03,374.0,385.0,351.0,267.0
1497,1041.18,3124.37,386.0,386.0,361.0,261.0
1498,1041.33,3125.71,381.0,380.0,376.0,261.0
1499,1041.48,3127.05,375.0,358.0,353.0,259.0
1500,1041.62,3128.38,383.0,363.0,330.0,256.0
1501,1041.77,3129.72,390.0,381.0,344.0,266.0
1502,1041.91,3131.05,377.0,365.0,339.0,261.0
1503,1042.06,3132.39,378.0,340.0,323.0,251.0
1504,1042.21,3133.72,378.0,333.0,330.0,245.0
1505,1042.35,3135.06,380.0,347.0,338.0,245.0
1506,1042.5,3136.39,386.0,364.0,347.0,257.0
1507,1042.64,3137.72,380.0,365.0,338.0,252.0
1508,1042.79,3139.05,384.0,355.0,327.0,255.0
1509,1042.94,3140.39,383.0,365.0,334.0,264.0
1510,1043.08,3141.72,380.0,370.0,344.0,267.0
1511,1043.23,3143.05,392.0,360.0,349.0,270.0
1512,1043.37,3144.38,394.0,353.0,345.0,252.0
1513,1043.52,3145.71,384.0,356.0,349.0,242.0
1514,1043.67,3147.04,396.0,381.0,366.0,267.0
1515,1043.81,3148.37,398.0,377.0,369.0,279.0
1516,1043.96,3149.69,396.0,380.0,360.0,279.0
1517,1044.1,3151.02,387.0,379.0,356.0,272.0
1518,1044.25,3152.35,369.0,357.0,335.0,255.0
1519,1044.4,3153.68,375.0,372.0,329.0,271.0
1520,1044.54,3155.0,367.0,371.0,340.0,279.0
1521,1044.69,3156.33,367.0,368.0,342.0,270.0
1522,1044.83,3157.65,391.0,398.0,356.0,276.0
1523,1044.98,3158.98,388.0,399.0,374.0,286.0
1524,1045.12,3160.3,382.0,386.0,377.0,299.0
1525,1045.27,3161.63,382.0,369.0,348.0,280.0
1526,1045.42,3162.95,368.0,342.0,320.0,262.0
1527,1045.56,3164.27,357.0,335.0,330.0,256.0
1528,1045.71,3165.59,376.0,347.0,341.0,269.0
1529,1045.85,3166.92,390.0,361.0,362.0,291.0
1530,1046.0,3168.24,383.0,360.0,370.0,279.0
1531,1046.14,3169.56,382.0,345.0,342.0,272.0
1532,1046.29,3170.88,384.0,348.0,344.0,279.0
1533,1046.44,3172.2,393.0,365.0,359.0,280.0
1534,1046.58,3173.52,401.0,364.0,342.0,286.0
1535,1046.73,3174.84,378.0,356.0,328.0,276.0
1536,1046.87,3176.16,353.0,359.0,330.0,250.0
1537,1047.02,3177.47,367.0,369.0,337.0,270.0
1538,1047.16,3178.79,374.0,358.0,339.0,280.0
1539,1047.31,3180.11,391.0,352.0,354.0,275.0
1540,1047.45,3181.43,393.0,360.0,368.0,281.0
1541,1047.6,3182.74,370.0,354.0,349.0,273.0
1542,1047.74,3184.06,368.0,357.0,336.0,273.0
1543,1047.89,3185.37,362.0,359.0,343.0,274.0
1544,1048.04,3186.69,365.0,350.0,344.0,262.0
1545,1048.18,3188.0,351.0,340.0,330.0,246.0
1546,1048.33,3189.32,357.0,347.0,325.0,258.0
1547,1048.47,3190.63,372.0,350.0,330.0,272.0
1548,1048.62,3191.94,369.0,355.0,338.0,274.0
1549,1048.76,3193.25,377.0,369.0,344.0,277.0
1550,1048.91,3194.57,364.0,363.0,336.0,266.0
1551,1049.05,3195.88,359.0,365.0,340.0,268.0
1552,1049.2,3197.19,364.0,372.0,356.0,275.0
1553,1049.34,3198.5,380.0,366.0,367.0,285.0
1554,1049.49,3199.81,369.0,364.0,358.0,289.0
1555,1049.63,3201.12,357.0,374.0,354.0,276.0
1556,1049.78,3202.43,382.0,385.0,359.0,287.0
1557,1049.92,3203.74,375.0,380.0,354.0,282.0
1558,1050.07,3205.04,372.0,353.0,339.0,264.0
1559,1050.21,3206.35,381.0,349.0,329.0,265.0
1560,1050.36,3207.66,385.0,350.0,340.0,280.0
1561,1050.5,3208.97,377.0,346.0,343.0,286.0
1562,1050.65,3210.27,360.0,342.0,326.0,257.0
1563,1050.79,3211.58,345.0,342.0,333.0,248.0
1564,1050.94,3212.88,328.0,352.0,339.0,267.0
1565,1051.08,3214.19,347.0,350.0,326.0,282.0
1566,1051.23,3215.49,379.0,350.0,330.0,291.0
1567,1051.37,3216.8,370.0,343.0,329.0,270.0
1568,1051.52,3218.1,355.0,351.0,315.0,256.0
1569,1051.66,3219.4,360.0,358.0,326.0,271.0
1570,1051.81,3220.71,347.0,345.0,337.0,284.0
1571,1051.95,3222.01,346.0,346.0,334.0,282.0
1572,1052.1,3223.31,354.0,348.0,332.0,265.0
1573,1052.24,3224.61,344.0,332.0,325.0,256.0
1574,1052.39,3225.91,351.0,327.0,322.0,265.0
1575,1052.53,3227.21,350.0,337.0,308.0,267.0
1576,1052.68,3228.51,343.0,337.0,313.0,272.0
1577,1052.82,3229.81,349.0,339.0,322.0,274.0
1578,1052.97,3231.11,354.0,341.0,327.0,272.0
1579,1053.11,3232.41,362.0,347.0,339.0,291.0
1580,1053.26,3233.71,354.0,359.0,340.0,286.0
1581,1053.4,3235.01,354.0,360.0,348.0,277.0
1582,1053.55,3236.3,341.0,341.0,315.0,267.0
1583,1053.69,3237.6,336.0,322.0,311.0,272.0
1584,1053.84,3238.9,345.0,325.0,335.0,276.0
1585,1053.98,3240.19,332.0,327.0,315.0,253.0
1586,1054.13,3241.49,345.0,336.0,334.0,262.0
1587,1054.27,3242.78,337.0,347.0,341.0,281.0
1588,1054.42,3244.08,325.0,341.0,310.0,271.0
1589,1054.56,3245.37,333.0,316.0,301.0,261.0
1590,1054.71,3246.67,332.0,315.0,303.0,265.0
1591,1054.85,3247.96,330.0,345.0,314.0,264.0
1592,1054.99,3249.25,345.0,343.0,312.0,269.0
1593,1055.14,3250.55,355.0,328.0,308.0,267.0
1594,1055.28,3251.84,344.0,323.0,310.0,257.0
1595,1055.43,3253.13,346.0,322.0,311.0,257.0
1596,1055.57,3254.42,329.0,320.0,308.0,251.0
1597,1055.72,3255.71,318.0,327.0,306.0,254.0
1598,1055.86,3257.0,322.0,322.0,312.0,257.0
1599,1056.01,3258.29,332.0,327.0,306.0,250.0
1600,1056.15,3259.58,332.0,330.0,294.0,255.0
1601,1056.3,3260.87,323.0,305.0,287.0,255.0
1602,1056.44,3262.16,347.0,328.0,318.0,270.0
1603,1056.58,3263.45,352.0,341.0,335.0,275.0
1604,1056.73,3264.74,331.0,330.0,344.0,270.0
1605,1056.87,3266.02,327.0,331.0,334.0,266.0
1606,1057.02,3267.31,350.0,325.0,317.0,252.0
1607,1057.16,3268.6,362.0,317.0,323.0,251.0
1608,1057.31,3269.88,341.0,325.0,323.0,268.0
1609,1057.45,3271.17,321.0,326.0,332.0,274.0
1610,1057.6,3272.46,336.0,322.0,332.0,268.0
1611,1057.74,3273.74,342.0,337.0,327.0,266.0
1612,1057.88,3275.02,334.0,341.0,317.0,257.0
1613,1058.03,3276.31,345.0,343.0,312.0,265.0
1614,1058.17,3277.59,343.0,331.0,312.0,259.0
1615,1058.32,3278.88,348.0,328.0,332.0,260.0
1616,1058.46,3280.16,343.0,322.0,330.0,263.0
1617,1058.6,3281.44,326.0,292.0,294.0,236.0
1618,1058.75,3282.72,329.0,292.0,290.0,247.0
1619,1058.89,3284.01,317.0,305.0,294.0,254.0
1620,1059.04,3285.29,316.0,316.0,305.0,251.0
1621,1059.18,3286.57,332.0,316.0,318.0,268.0
1622,1059.33,3287.85,319.0,276.0,310.0,252.0
1623,1059.47,3289.13,330.0,288.0,325.0,256.0
1624,1059.61,3290.41,340.0,317.0,326.0,282.0
1625,1059.76,3291.69,349.0,318.0,324.0,279.0
1626,1059.9,3292.97,361.0,335.0,338.0,283.0
1627,1060.05,3294.24,353.0,325.0,324.0,276.0
1628,1060.19,3295.52,353.0,333.0,321.0,270.0
1629,1060.33,3296.8,332.0,337.0,324.0,267.0
1630,1060.48,3298.08,328.0,318.0,318.0,268.0
1631,1060.62,3299.35,331.0,320.0,316.0,268.0
1632,1060.77,3300.63,318.0,326.0,311.0,264.0
1633,1060.91,3301.91,333.0,329.0,315.0,282.0
1634,1061.05,3303.18,338.0,318.0,312.0,272.0
1635,1061.2,3304.46,334.0,314.0,303.0,258.0
1636,1061.34,3305.73,331.0,322.0,316.0,268.0
1637,1061.49,3307.01,320.0,321.0,325.0,271.0
1638,1061.63,3308.28,325.0,307.0,313.0,263.0
1639,1061.77,3309.55,324.0,297.0,294.0,259.0
1640,1061.92,3310.83,322.0,319.0,299.0,259.0
1641,1062.06,3312.1,338.0,345.0,323.0,278.0
1642,1062.21,3313.37,330.0,333.0,314.0,267.0
1643,1062.35,3314.64,325.0,323.0,305.0,252.0
1644,1062.49,3315.92,339.0,326.0,309.0,264.0
1645,1062.64,3317.19,322.0,321.0,313.0,260.0
1646,1062.78,3318.46,323.0,319.0,315.0,266.0
1647,1062.92,3319.73,336.0,320.0,313.0,270.0
1648,1063.07,3321.0,330.0,313.0,306.0,264.0
1649,1063.21,3322.27,337.0,316.0,301.0,266.0
1650,1063.36,3323.54,333.0,330.0,315.0,269.0
1651,1063.5,3324.81,327.0,338.0,318.0,271.0
1652,1063.64,3326.08,328.0,317.0,305.0,270.0
1653,1063.79,3327.34,326.0,299.0,302.0,259.0
1654,1063.93,3328.61,325.0,313.0,312.0,260.0
1655,1064.07,3329.88,320.0,309.0,311.0,270.0
1656,1064.22,3331.15,331.0,313.0,304.0,281.0
1657,1064.36,3332.41,325.0,325.0,313.0,266.0
1658,1064.51,3333.68,313.0,322.0,326.0,258.0
1659,1064.65,3334.95,311.0,317.0,312.0,257.0
1660,1064.79,3336.21,321.0,317.0,294.0,252.0
1661,1064.94,3337.48,338.0,302.0,300.0,258.0
1662,1065.08,3338.74,343.0,304.0,309.0,264.0
1663,1065.22,3340.01,328.0,320.0,301.0,261.0
1664,1065.37,3341.27,320.0,315.0,294.0,261.0
1665,1065.51,3342.53,321.0,311.0,292.0,265.0
1666,1065.65,3343.8,318.0,303.0,292.0,253.0
1667,1065.8,3345.06,344.0,308.0,308.0,262.0
1668,1065.94,3346.32,340.0,314.0,319.0,253.0
1669,1066.08,3347.59,311.0,297.0,297.0,239.0
1670,1066.23,3348.85,328.0,311.0,297.0,268.0
1671,1066.37,3350.11,325.0,321.0,314.0,275.0
1672,1066.51,3351.37,315.0,321.0,318.0,273.0
1673,1066.66,3352.63,324.0,324.0,315.0,274.0
1674,1066.8,3353.89,322.0,307.0,301.0,261.0
1675,1066.94,3355.15,332.0,317.0,291.0,264.0
1676,1067.09,3356.41,335.0,316.0,291.0,265.0
1677,1067.23,3357.67,334.0,298.0,306.0,261.0
1678,1067.37,3358.93,320.0,304.0,311.0,255.0
1679,1067.52,3360.19,322.0,313.0,305.0,255.0
1680,1067.66,3361.45,320.0,309.0,299.0,259.0
1681,1067.8,3362.7,313.0,307.0,305.0,258.0
1682,1067.95,3363.96,327.0,312.0,302.0,257.0
1683,1068.09,3365.22,333.0,315.0,293.0,263.0
1684,1068.23,3366.48,324.0,308.0,289.0,253.0
1685,1068.38,3367.73,312.0,299.0,280.0,243.0
1686,1068.52,3368.99,325.0,311.0,285.0,253.0
1687,1068.66,3370.24,349.0,332.0,302.0,261.0
1688,1068.81,3371.5,362.0,339.0,323.0,278.0
1689,1068.95,3372.75,367.0,340.0,333.0,278.0
1690,1069.09,3374.01,346.0,347.0,312.0,248.0
1691,1069.24,3375.26,342.0,340.0,301.0,249.0
1692,1069.38,3376.52,343.0,318.0,307.0,264.0
1693,1069.52,3377.77,346.0,331.0,319.0,265.0
1694,1069.67,3379.03,351.0,337.0,344.0,270.0
1695,1069.81,3380.28,343.0,319.0,338.0,256.0
1696,1069.95,3381.53,351.0,316.0,327.0,232.0
1697,1070.1,3382.78,348.0,318.0,340.0,235.0
1698,1070.24,3384.04,359.0,331.0,349.0,254.0
1699,1070.38,3385.29,351.0,327.0,326.0,257.0
1700,1070.52,3386.54,364.0,325.0,311.0,247.0
1701,1070.67,3387.79,394.0,351.0,322.0,253.0
1702,1070.81,3389.04,375.0,343.0,328.0,262.0
1703,1070.95,3390.29,352.0,335.0,326.0,266.0
1704,1071.1,3391.54,354.0,336.0,321.0,256.0
1705,1071.24,3392.79,353.0,312.0,317.0,233.0
1706,1071.38,3394.04,359.0,312.0,325.0,244.0
1707,1071.53,3395.29,347.0,308.0,317.0,257.0
1708,1071.67,3396.54,344.0,321.0,308.0,260.0
1709,1071.81,3397.78,363.0,348.0,332.0,273.0
1710,1071.95,3399.03,349.0,345.0,329.0,268.0
1711,1072.1,3400.28,337.0,344.0,313.0,265.0
1712,1072.24,3401.53,324.0,332.0,306.0,246.0
1713,1072.38,3402.77,315.0,304.0,288.0,232.0
1714,1072.53,3404.02,342.0,318.0,302.0,261.0
1715,1072.67,3405.27,350.0,349.0,312.0,262.0
1716,1072.81,3406.51,345.0,346.0,305.0,247.0
1717,1072.95,3407.76,347.0,332.0,311.0,253.0
1718,1073.1,3409.0,348.0,324.0,311.0,259.0
1719,1073.24,3410.25,350.0,317.0,307.0,271.0
1720,1073.38,3411.49,326.0,303.0,291.0,253.0
1721,1073.53,3412.74,325.0,308.0,296.0,221.0
1722,1073.67,3413.98,342.0,311.0,299.0,232.0
1723,1073.81,3415.23,359.0,322.0,312.0,269.0
1724,1073.95,3416.47,358.0,333.0,336.0,276.0
1725,1074.1,3417.71,332.0,320.0,310.0,255.0
1726,1074.24,3418.96,333.0,313.0,308.0,250.0
1727,1074.38,3420.2,351.0,306.0,312.0,260.0
1728,1074.52,3421.44,352.0,307.0,288.0,251.0
1729,1074.67,3422.68,353.0,323.0,309.0,248.0
1730,1074.81,3423.92,350.0,338.0,337.0,267.0
1731,1074.95,3425.16,337.0,347.0,333.0,259.0
1732,1075.09,3426.41,342.0,329.0,330.0,247.0
1733,1075.24,3427.65,362.0,315.0,329.0,255.0
1734,1075.38,3428.89,374.0,327.0,337.0,260.0
1735,1075.52,3430.13,361.0,322.0,327.0,251.0
1736,1075.67,3431.37,351.0,317.0,298.0,248.0
1737,1075.81,3432.6,374.0,335.0,311.0,258.0
1738,1075.95,3433.84,386.0,338.0,329.0,261.0
1739,1076.09,3435.08,361.0,321.0,318.0,255.0
1740,1076.24,3436.32,358.0,336.0,329.0,250.0
1741,1076.38,3437.56,365.0,350.0,336.0,244.0
1742,1076.52,3438.8,396.0,353.0,337.0,260.0
1743,1076.66,3440.03,412.0,360.0,350.0,269.0
1744,1076.81,3441.27,371.0,339.0,327.0,237.0
1745,1076.95,3442.51,360.0,330.0,318.0,217.0
1746,1077.09,3443.74,377.0,352.0,332.0,228.0
1747,1077.23,3444.98,387.0,360.0,328.0,235.0
1748,1077.37,3446.22,395.0,366.0,350.0,246.0
1749,1077.52,3447.45,407.0,385.0,368.0,254.0
1750,1077.66,3448.69,407.0,386.0,362.0,246.0
1751,1077.8,3449.92,406.0,377.0,354.0,240.0
1752,1077.94,3451.16,402.0,377.0,344.0,224.0
1753,1078.09,3452.39,415.0,373.0,344.0,229.0
1754,1078.23,3453.63,429.0,388.0,351.0,242.0
1755,1078.37,3454.86,442.0,423.0,371.0,237.0
1756,1078.51,3456.09,456.0,426.0,373.0,234.0
1757,1078.66,3457.33,461.0,415.0,371.0,229.0
1758,1078.8,3458.56,466.0,434.0,392.0,238.0
1759,1078.94,3459.79,484.0,437.0,402.0,248.0
1760,1079.08,3461.02,516.0,433.0,412.0,252.0
1761,1079.23,3462.26,517.0,455.0,418.0,248.0
1762,1079.37,3463.49,496.0,452.0,419.0,234.0
1763,1079.51,3464.72,490.0,437.0,413.0,233.0
1764,1079.65,3465.95,506.0,454.0,402.0,235.0
1765,1079.79,3467.18,510.0,458.0,402.0,226.0
1766,1079.94,3468.41,521.0,447.0,399.0,229.0
1767,1080.08,3469.64,528.0,439.0,411.0,227.0
1768,1080.22,3470.87,528.0,470.0,422.0,225.0
1769,1080.36,3472.1,538.0,496.0,432.0,238.0
1770,1080.51,3473.33,526.0,451.0,431.0,216.0
1771,1080.65,3474.56,535.0,446.0,422.0,221.0
1772,1080.79,3475.79,567.0,484.0,428.0,237.0
1773,1080.93,3477.02,575.0,487.0,429.0,232.0
1774,1081.07,3478.25,590.0,513.0,448.0,269.0
1775,1081.22,3479.48,592.0,544.0,474.0,289.0
1776,1081.36,3480.7,531.0,518.0,447.0,258.0
1777,1081.5,3481.93,522.0,488.0,428.0,235.0
1778,1081.64,3483.16,559.0,489.0,442.0,242.0
1779,1081.78,3484.39,582.0,506.0,462.0,238.0
1780,1081.93,3485.61,594.0,527.0,461.0,244.0
1781,1082.07,3486.84,571.0,535.0,447.0,254.0
1782,1082.21,3488.07,555.0,513.0,459.0,243.0
1783,1082.35,3489.29,562.0,503.0,457.0,238.0
1784,1082.49,3490.52,597.0,524.0,467.0,242.0
1785,1082.64,3491.74,617.0,546.0,477.0,237.0
1786,1082.78,3492.97,621.0,562.0,471.0,246.0
1787,1082.92,3494.19,633.0,574.0,466.0,252.0
1788,1083.06,3495.42,617.0,577.0,468.0,230.0
1789,1083.2,3496.64,643.0,592.0,485.0,231.0
1790,1083.35,3497.87,707.0,600.0,502.0,234.0
1791,1083.49,3499.09,732.0,608.0,529.0,221.0
1792,1083.63,3500.31,781.0,639.0,580.0,252.0
1793,1083.77,3501.54,793.0,670.0,600.0,271.0
1794,1083.91,3502.76,790.0,724.0,581.0,257.0
1795,1084.06,3503.98,827.0,728.0,583.0,242.0
1796,1084.2,3505.2,856.0,712.0,616.0,232.0
1797,1084.34,3506.43,907.0,768.0,641.0,252.0
1798,1084.48,3507.65,954.0,805.0,662.0,248.0
1799,1084.62,3508.87,986.0,817.0,686.0,245.0
1800,1084.76,3510.09,1017.0,848.0,703.0,257.0
1801,1084.91,3511.31,1053.0,879.0,727.0,260.0
1802,1085.05,3512.53,1068.0,915.0,756.0,256.0
1803,1085.19,3513.75,1094.0,929.0,765.0,243.0
1804,1085.33,3514.98,1149.0,961.0,787.0,248.0
1805,1085.47,3516.2,1168.0,1018.0,833.0,254.0
1806,1085.62,3517.42,1199.0,1026.0,840.0,255.0
1807,1085.76,3518.64,1240.0,1024.0,864.0,261.0
1808,1085.9,3519.85,1258.0,1025.0,886.0,234.0
1809,1086.04,3521.07,1282.0,1044.0,857.0,233.0
1810,1086.18,3522.29,1347.0,1074.0,879.0,264.0
1811,1086.32,3523.51,1427.0,1129.0,945.0,268.0
1812,1086.47,3524.73,1491.0,1228.0,991.0,267.0
1813,1086.61,3525.95,1590.0,1251.0,1023.0,254.0
1814,1086.75,3527.17,1658.0,1313.0,1096.0,247.0
1815,1086.89,3528.38,1764.0,1466.0,1209.0,257.0
1816,1087.03,3529.6,1922.0,1547.0,1286.0,259.0
1817,1087.17,3530.82,2031.0,1666.0,1332.0,257.0
1818,1087.32,3532.04,2127.0,1774.0,1395.0,258.0
1819,1087.46,3533.25,2224.0,1795.0,1447.0,250.0
1820,1087.6,3534.47,2266.0,1832.0,1505.0,249.0
1821,1087.74,3535.68,2289.0,1894.0,1555.0,274.0
1822,1087.88,3536.9,2357.0,1925.0,1554.0,280.0
1823,1088.02,3538.12,2352.0,1919.0,1559.0,259.0
1824,1088.16,3539.33,2355.0,1965.0,1593.0,275.0
1825,1088.31,3540.55,2356.0,1983.0,1613.0,293.0
1826,1088.45,3541.76,2305.0,1920.0,1590.0,277.0
1827,1088.59,3542.98,2295.0,1862.0,1539.0,251.0
1828,1088.73,3544.19,2276.0,1846.0,1494.0,252.0
1829,1088.87,3545.41,2212.0,1781.0,1455.0,269.0
1830,1089.01,3546.62,2125.0,1732.0,1436.0,277.0
1831,1089.16,3547.83,2107.0,1728.0,1424.0,269.0
1832,1089.3,3549.05,2018.0,1621.0,1353.0,250.0
1833,1089.44,3550.26,1939.0,1539.0,1310.0,259.0
1834,1089.58,3551.47,1875.0,1522.0,1275.0,266.0
1835,1089.72,3552.69,1779.0,1457.0,1244.0,270.0
1836,1089.86,3553.9,1790.0,1404.0,1245.0,279.0
1837,1090.0,3555.11,1730.0,1384.0,1184.0,267.0
1838,1090.15,3556.33,1661.0,1362.0,1159.0,270.0
1839,1090.29,3557.54,1624.0,1339.0,1125.0,284.0
1840,1090.43,3558.75,1586.0,1300.0,1057.0,262.0
1841,1090.57,3559.96,1579.0,1261.0,1057.0,255.0
1842,1090.71,3561.17,1571.0,1273.0,1063.0,263.0
1843,1090.85,3562.38,1543.0,1280.0,1036.0,258.0
1844,1090.99,3563.6,1505.0,1238.0,1028.0,249.0
1845,1091.13,3564.81,1509.0,1221.0,1032.0,252.0
1846,1091.28,3566.02,1488.0,1232.0,1023.0,252.0
1847,1091.42,3567.23,1468.0,1257.0,1030.0,251.0
1848,1091.56,3568.44,1515.0,1220.0,1047.0,265.0
1849,1091.7,3569.65,1541.0,1217.0,1038.0,273.0
1850,1091.84,3570.86,1504.0,1232.0,1031.0,260.0
1851,1091.98,3572.07,1534.0,1210.0,1047.0,256.0
1852,1092.12,3573.28,1586.0,1241.0,1069.0,270.0
1853,1092.27,3574.48,1534.0,1248.0,1073.0,256.0
1854,1092.41,3575.69,1500.0,1237.0,1048.0,243.0
1855,1092.55,3576.9,1507.0,1259.0,1053.0,267.0
1856,1092.69,3578.11,1537.0,1240.0,1063.0,275.0
1857,1092.83,3579.32,1544.0,1224.0,1059.0,259.0
1858,1092.97,3580.53,1550.0,1266.0,1055.0,260.0
1859,1093.11,3581.73,1564.0,1278.0,1050.0,265.0
1860,1093.25,3582.94,1563.0,1295.0,1059.0,285.0
1861,1093.39,3584.15,1564.0,1274.0,1068.0,279.0
1862,1093.54,3585.36,1548.0,1222.0,1068.0,268.0
1863,1093.68,3586.56,1552.0,1243.0,1070.0,273.0
1864,1093.82,3587.77,1556.0,1277.0,1033.0,263.0
1865,1093.96,3588.98,1554.0,1296.0,1041.0,264.0
1866,1094.1,3590.18,1555.0,1294.0,1075.0,272.0
1867,1094.24,3591.39,1535.0,1256.0,1072.0,252.0
1868,1094.38,3592.6,1523.0,1244.0,1097.0,248.0
1869,1094.52,3593.8,1558.0,1268.0,1085.0,267.0
1870,1094.67,3595.01,1584.0,1273.0,1062.0,262.0
1871,1094.81,3596.21,1565.0,1272.0,1054.0,274.0
1872,1094.95,3597.42,1546.0,1275.0,1033.0,280.0
1873,1095.09,3598.62,1515.0,1241.0,1041.0,259.0
1874,1095.23,3599.83,1528.0,1235.0,1036.0,263.0
1875,1095.37,3601.03,1558.0,1245.0,1042.0,280.0
1876,1095.51,3602.24,1537.0,1217.0,1040.0,271.0
1877,1095.65,3603.44,1536.0,1216.0,1053.0,261.0
1878,1095.79,3604.64,1536.0,1251.0,1101.0,274.0
1879,1095.93,3605.85,1539.0,1272.0,1090.0,284.0
1880,1096.08,3607.05,1537.0,1237.0,1070.0,272.0
1881,1096.22,3608.26,1559.0,1231.0,1062.0,249.0
1882,1096.36,3609.46,1613.0,1286.0,1071.0,263.0
1883,1096.5,3610.66,1637.0,1337.0,1081.0,274.0
1884,1096.64,3611.86,1655.0,1329.0,1090.0,266.0
1885,1096.78,3613.07,1774.0,1405.0,1140.0,280.0
1886,1096.92,3614.27,2205.0,1699.0,1309.0,281.0
1887,1097.06,3615.47,2913.0,2129.0,1678.0,274.0
1888,1097.2,3616.67,3718.0,2666.0,2170.0,287.0
1889,1097.34,3617.88,4433.0,3152.0,2600.0,302.0
1890,1097.48,3619.08,4949.0,3513.0,2957.0,318.0
1891,1097.63,3620.28,5345.0,3760.0,3261.0,319.0
1892,1097.77,3621.48,5628.0,3860.0,3400.0,304.0
1893,1097.91,3622.68,5514.0,3791.0,3326.0,310.0
1894,1098.05,3623.88,4839.0,3418.0,3022.0,320.0
1895,1098.19,3625.08,4034.0,2901.0,2580.0,302.0
1896,1098.33,3626.29,3467.0,2563.0,2276.0,294.0
1897,1098.47,3627.49,3079.0,2333.0,2079.0,314.0
1898,1098.61,3628.69,2769.0,2088.0,1833.0,307.0
1899,1098.75,3629.89,2455.0,1860.0,1638.0,291.0
1900,1098.89,3631.09,2211.0,1692.0,1515.0,282.0
1901,1099.03,3632.29,2020.0,1569.0,1373.0,292.0
1902,1099.18,3633.49,1793.0,1442.0,1241.0,308.0
1903,1099.32,3634.69,1629.0,1325.0,1122.0,298.0
1904,1099.46,3635.89,1501.0,1213.0,1041.0,278.0
1905,1099.6,3637.08,1400.0,1151.0,1015.0,254.0
1906,1099.74,3638.28,1368.0,1140.0,1002.0,267.0
1907,1099.88,3639.48,1350.0,1107.0,990.0,281.0
1908,1100.02,3640.68,1325.0,1104.0,974.0,268.0
1909,1100.16,3641.88,1331.0,1121.0,952.0,253.0
1910,1100.3,3643.08,1332.0,1104.0,916.0,241.0
1911,1100.44,3644.28,1346.0,1089.0,927.0,253.0
1912,1100.58,3645.47,1356.0,1080.0,928.0,249.0
1913,1100.72,3646.67,1322.0,1076.0,910.0,230.0
1914,1100.86,3647.87,1351.0,1081.0,935.0,251.0
1915,1101.0,3649.07,1341.0,1069.0,939.0,261.0
1916,1101.15,3650.27,1269.0,1044.0,897.0,235.0
1917,1101.29,3651.46,1231.0,1023.0,893.0,247.0
1918,1101.43,3652.66,1201.0,1012.0,873.0,273.0
1919,1101.57,3653.86,1186.0,992.0,857.0,271.0
1920,1101.71,3655.05,1177.0,958.0,847.0,247.0
1921,1101.85,3656.25,1142.0,945.0,823.0,235.0
1922,1101.99,3657.45,1111.0,955.0,820.0,267.0
1923,1102.13,3658.64,1134.0,942.0,806.0,272.0
1924,1102.27,3659.84,1129.0,931.0,795.0,256.0
1925,1102.41,3661.03,1084.0,921.0,773.0,249.0
1926,1102.55,3662.23,1076.0,899.0,771.0,248.0
1927,1102.69,3663.43,1106.0,887.0,770.0,254.0
1928,1102.83,3664.62,1091.0,876.0,753.0,247.0
1929,1102.97,3665.82,1049.0,862.0,758.0,244.0
1930,1103.11,3667.01,1014.0,846.0,745.0,242.0
1931,1103.25,3668.21,955.0,834.0,701.0,234.0
1932,1103.39,3669.4,947.0,833.0,682.0,237.0
1933,1103.54,3670.6,955.0,796.0,687.0,242.0
1934,1103.68,3671.79,928.0,765.0,681.0,235.0
1935,1103.82,3672.99,935.0,787.0,712.0,254.0
1936,1103.96,3674.18,927.0,777.0,706.0,255.0
1937,1104.1,3675.38,908.0,771.0,671.0,244.0
1938,1104.24,3676.57,917.0,767.0,674.0,252.0
1939,1104.38,3677.76,882.0,728.0,663.0,250.0
1940,1104.52,3678.96,839.0,714.0,638.0,239.0
1941,1104.66,3680.15,818.0,707.0,621.0,221.0
1942,1104.8,3681.34,821.0,709.0,626.0,235.0
1943,1104.94,3682.54,854.0,720.0,641.0,252.0
1944,1105.08,3683.73,836.0,703.0,650.0,252.0
1945,1105.22,3684.92,816.0,707.0,639.0,262.0
1946,1105.36,3686.12,836.0,693.0,616.0,255.0
1947,1105.5,3687.31,831.0,664.0,614.0,237.0
1948,1105.64,3688.5,798.0,679.0,621.0,242.0
1949,1105.78,3689.7,803.0,700.0,593.0,243.0
1950,1105.92,3690.89,803.0,705.0,583.0,250.0
1951,1106.06,3692.08,766.0,680.0,568.0,252.0
1952,1106.2,3693.27,751.0,641.0,549.0,225.0
1953,1106.34,3694.47,738.0,625.0,546.0,227.0
1954,1106.48,3695.66,717.0,636.0,544.0,242.0
1955,1106.63,3696.85,713.0,627.0,550.0,237.0
1956,1106.77,3698.04,703.0,607.0,533.0,229.0
1957,1106.91,3699.23,664.0,605.0,518.0,233.0
1958,1107.05,3700.42,662.0,605.0,529.0,243.0
1959,1107.19,3701.62,663.0,578.0,512.0,238.0
1960,1107.33,3702.81,661.0,568.0,508.0,235.0
1961,1107.47,3704.0,675.0,588.0,531.0,246.0
1962,1107.61,3705.19,667.0,573.0,525.0,256.0
1963,1107.75,3706.38,648.0,549.0,508.0,265.0
1964,1107.89,3707.57,637.0,552.0,506.0,266.0
1965,1108.03,3708.76,640.0,561.0,499.0,253.0
1966,1108.17,3709.95,624.0,560.0,479.0,246.0
1967,1108.31,3711.14,604.0,535.0,482.0,249.0
1968,1108.45,3712.33,582.0,523.0,472.0,245.0
1969,1108.59,3713.52,554.0,517.0,455.0,224.0
1970,1108.73,3714.71,574.0,498.0,449.0,229.0
1971,1108.87,3715.9,594.0,496.0,446.0,226.0
1972,1109.01,3717.09,565.0,497.0,443.0,221.0
1973,1109.15,3718.28,560.0,509.0,448.0,241.0
1974,1109.29,3719.47,543.0,508.0,447.0,243.0
1975,1109.43,3720.66,518.0,486.0,432.0,237.0
1976,1109.57,3721.85,538.0,473.0,422.0,245.0
1977,1109.71,3723.04,548.0,465.0,408.0,244.0
1978,1109.85,3724.23,530.0,447.0,406.0,226.0
1979,1109.99,3725.42,531.0,443.0,422.0,221.0
1980,1110.13,3726.61,545.0,460.0,424.0,227.0
1981,1110.27,3727.8,537.0,474.0,421.0,235.0
1982,1110.41,3728.99,507.0,458.0,424.0,234.0
1983,1110.55,3730.17,491.0,427.0,411.0,230.0
1984,1110.69,3731.36,498.0,442.0,387.0,245.0
1985,1110.83,3732.55,504.0,442.0,398.0,257.0
1986,1110.97,3733.74,502.0,429.0,412.0,244.0
1987,1111.11,3734.93,501.0,433.0,406.0,241.0
1988,1111.25,3736.12,488.0,435.0,404.0,244.0
1989,1111.39,3737.3,473.0,433.0,396.0,238.0
1990,1111.53,3738.49,469.0,426.0,405.0,240.0
1991,1111.67,3739.68,454.0,415.0,399.0,238.0
1992,1111.81,3740.87,447.0,414.0,382.0,241.0
1993,1111.95,3742.06,457.0,409.0,391.0,233.0
1994,1112.09,3743.24,468.0,410.0,394.0,232.0
1995,1112.23,3744.43,459.0,412.0,375.0,240.0
1996,1112.37,3745.62,463.0,413.0,379.0,237.0
1997,1112.51,3746.81,475.0,419.0,383.0,241.0
1998,1112.65,3747.99,447.0,407.0,367.0,225.0
1999,1112.79,3749.18,426.0,411.0,372.0,242.0
2000,1112.93,3750.37,417.0,397.0,365.0,254.0
2001,1113.07,3751.55,407.0,396.0,371.0,246.0
2002,1113.21,3752.74,418.0,394.0,390.0,242.0
2003,1113.35,3753.93,433.0,384.0,371.0,228.0
2004,1113.49,3755.11,424.0,367.0,357.0,227.0
2005,1113.63,3756.3,413.0,368.0,362.0,235.0
2006,1113.77,3757.49,406.0,380.0,356.0,229.0
2007,1113.91,3758.67,387.0,361.0,339.0,203.0
2008,1114.05,3759.86,400.0,371.0,345.0,217.0
2009,1114.19,3761.05,412.0,384.0,357.0,240.0
2010,1114.33,3762.23,403.0,365.0,337.0,236.0
2011,1114.47,3763.42,396.0,360.0,329.0,235.0
2012,1114.61,3764.61,385.0,363.0,327.0,233.0
2013,1114.75,3765.79,395.0,344.0,335.0,246.0
2014,1114.89,3766.98,393.0,349.0,357.0,245.0
2015,1115.03,3768.16,386.0,351.0,344.0,239.0
2016,1115.17,3769.35,393.0,363.0,342.0,240.0
2017,1115.31,3770.53,388.0,367.0,349.0,224.0
2018,1115.45,3771.72,393.0,356.0,349.0,238.0
2019,1115.59,3772.91,391.0,355.0,346.0,246.0
2020,1115.73,3774.09,391.0,349.0,344.0,254.0
2021,1115.87,3775.28,402.0,355.0,360.0,273.0
2022,1116.01,3776.46,378.0,346.0,349.0,257.0
2023,1116.15,3777.65,356.0,346.0,319.0,235.0
2024,1116.29,3778.83,340.0,334.0,314.0,215.0
2025,1116.43,3780.02,343.0,313.0,318.0,217.0
2026,1116.57,3781.2,367.0,326.0,320.0,245.0
2027,1116.71,3782.39,362.0,328.0,318.0,257.0
2028,1116.85,3783.57,346.0,319.0,305.0,239.0
2029,1116.99,3784.76,345.0,317.0,287.0,222.0
2030,1117.13,3785.94,331.0,312.0,282.0,222.0
2031,1117.27,3787.13,346.0,323.0,313.0,244.0
2032,1117.41,3788.31,366.0,324.0,318.0,255.0
2033,1117.55,3789.5,355.0,311.0,301.0,249.0
2034,1117.69,3790.68,354.0,315.0,318.0,240.0
2035,1117.83,3791.87,337.0,321.0,307.0,225.0
2036,1117.97,3793.05,323.0,315.0,296.0,230.0
2037,1118.11,3794.23,347.0,304.0,313.0,243.0
2038,1118.25,3795.42,358.0,313.0,314.0,245.0
2039,1118.39,3796.6,336.0,320.0,303.0,239.0
2040,1118.53,3797.79,323.0,313.0,297.0,238.0
2041,1118.67,3798.97,329.0,316.0,306.0,245.0
2042,1118.81,3800.16,340.0,321.0,320.0,259.0
2043,1118.95,3801.34,326.0,315.0,306.0,256.0
2044,1119.09,3802.52,322.0,315.0,294.0,239.0
2045,1119.23,3803.71,327.0,304.0,306.0,243.0
2046,1119.37,3804.89,310.0,292.0,286.0,247.0
2047,1119.51,3806.08,151.0,153.0,135.0,124.0
