raman_shift_reported_cm-1,counts
0.764,4356.28334
4.975,3532.24562
9.182,2972.84562
13.386,2574.45143
17.586,2225.48831
21.783,1865.02117
25.977,1537.91477
30.167,1240.35229
34.353,1008.15964
38.536,853.0229
42.716,720.81747
46.892,638.91666
51.064,576.53381
55.234,516.16241
59.399,475.71328
63.562,460.82123
67.721,428.42111
71.876,413.93153
76.028,407.49173
80.177,406.88778
84.322,415.3392
88.464,426.0055
92.602,440.09191
96.737,460.2162
100.868,476.11361
104.997,490.60197
109.121,509.92102
113.243,527.2273
117.361,531.45213
121.475,545.13557
125.586,561.03242
129.694,573.10599
133.799,574.11174
137.9,597.25302
141.997,617.77848
146.092,632.46685
150.183,641.52231
154.27,655.60781
158.355,682.57341
162.436,705.71508
166.513,718.38876
170.588,723.61919
174.658,752.3937
178.726,756.61725
182.79,771.90991
186.851,789.81655
190.909,841.93141
194.963,891.22834
199.014,933.885
203.062,968.49119
207.107,947.1632
211.148,940.12172
215.185,894.84984
219.22,853.19898
223.251,820.60325
227.279,776.9375
231.304,762.24758
235.325,747.15622
239.344,745.34621
243.358,743.53554
247.37,740.51706
251.378,734.47976
255.383,753.80035
259.385,744.14101
263.384,741.72666
267.379,749.97694
271.371,733.0719
275.36,738.30355
279.346,749.5728
283.328,763.25609
287.308,784.38455
291.284,799.67833
295.256,773.92039
299.226,756.61102
303.192,723.81336
307.155,726.02711
311.115,722.60577
315.072,725.82542
319.025,728.44146
322.976,728.2402
326.923,745.74681
330.867,770.29522
334.808,813.1536
338.745,867.07985
342.68,916.98132
346.611,942.93876
350.539,928.45043
354.464,913.35864
358.386,914.76955
362.304,928.65213
366.22,958.23221
370.132,975.73749
374.041,940.52629
377.947,873.52114
381.85,829.25176
385.75,815.57023
389.647,809.53522
393.54,821.60838
397.431,810.13574
401.318,814.16076
405.202,846.56067
409.083,870.3091
412.961,940.33088
416.836,1064.47756
420.708,1189.42112
424.576,1176.54849
428.442,1069.91557
432.304,935.91012
436.164,874.53828
440.02,863.27128
443.873,851.8021
447.723,876.15106
451.57,935.10749
455.414,1088.83149
459.255,1306.12745
463.093,1337.11157
466.928,1129.27365
470.759,928.66987
474.588,841.94705
478.414,799.68932
482.236,780.17019
486.056,760.04624
489.872,755.01514
493.686,756.02388
497.496,758.64062
501.304,771.31594
505.108,770.30914
508.909,793.24739
512.708,842.74785
516.503,925.84885
520.295,1104.11911
524.085,1447.76137
527.871,2000.97576
531.654,2582.64161
535.435,2691.62432
539.212,2277.71825
542.986,1721.54713
546.758,1353.19567
550.526,1138.31919
554.291,1020.21265
558.054,951.80362
561.813,894.05783
565.57,860.25696
569.323,841.14337
573.074,818.60794
576.821,805.92947
580.566,785.19968
584.307,812.36289
588.046,804.11066
591.782,791.63441
595.515,773.1202
599.245,741.12268
602.971,730.25649
606.695,735.28902
610.417,760.44497
614.135,829.8673
617.85,989.83196
621.562,1123.42764
625.272,1086.40106
628.978,892.43771
632.682,773.11939
636.382,737.5087
640.08,734.49215
643.775,710.54584
647.467,697.66669
651.156,682.57273
654.842,682.37014
658.525,680.96213
662.206,672.5114
665.883,670.69976
669.558,677.33898
673.23,690.21536
676.899,696.85598
680.565,703.29834
684.228,686.19362
687.888,664.45934
691.545,653.39208
695.2,650.77775
698.852,656.41296
702.501,656.81631
706.147,668.28436
709.79,719.99735
713.43,845.55696
717.068,1073.53155
720.702,1154.21607
724.334,992.85042
727.963,781.77368
731.589,678.94822
735.213,634.07294
738.833,630.85154
742.451,626.82609
746.066,622.80192
749.678,608.11342
753.287,593.82672
756.894,597.04622
760.498,593.62422
764.098,586.58101
767.697,583.76391
771.292,589.19633
774.884,641.71733
778.474,728.84663
782.061,760.24007
785.645,671.70153
789.227,587.58683
792.805,575.1097
796.381,570.68295
799.954,572.29441
803.525,560.01733
807.092,556.59378
810.657,551.1617
814.219,554.38221
817.779,540.09414
821.335,539.08761
824.889,551.9668
828.44,555.38822
831.989,538.28364
835.534,548.54627
839.077,547.13659
842.617,558.20525
846.155,557.8034
849.689,549.55027
853.221,543.10998
856.751,533.45131
860.277,526.81152
863.801,532.6478
867.322,529.62971
870.841,529.83122
874.356,533.25228
877.869,532.84962
881.38,514.73777
884.887,510.91472
888.392,515.74267
891.895,515.94492
895.394,519.567
898.891,545.12274
902.385,606.90051
905.877,664.04981
909.366,649.76176
912.852,583.75823
916.335,532.04263
919.816,517.75488
923.294,511.92024
926.77,508.49934
930.243,512.32249
933.713,505.48145
937.181,505.27879
940.646,503.06588
944.108,516.74977
947.568,523.39019
951.025,544.11789
954.479,562.02791
957.931,575.71321
961.38,548.54544
964.826,526.4092
968.27,523.59145
971.711,522.78565
975.15,533.65315
978.586,532.44688
982.019,538.28263
985.45,540.09267
988.878,557.1975
992.304,568.46561
995.727,602.27249
999.147,643.52354
1002.565,654.79301
1005.98,637.48764
1009.393,604.08453
1012.803,576.92107
1016.21,557.00138
1019.615,560.42227
1023.017,546.1328
1026.417,552.97348
1029.814,551.76531
1033.209,563.23541
1036.601,588.99347
1039.99,615.15167
1043.377,673.70795
1046.761,727.63507
1050.143,744.33783
1053.522,733.67112
1056.899,718.37954
1060.273,693.42939
1063.644,645.53722
1067.013,616.55942
1070.38,600.05861
1073.743,573.49628
1077.105,566.65534
1080.464,562.63015
1083.82,562.22834
1087.174,567.86237
1090.525,558.80743
1093.874,561.22193
1097.22,580.5404
1100.564,595.63184
1103.905,601.46679
1107.243,611.5279
1110.579,631.45045
1113.913,642.51802
1117.244,628.43169
1120.573,622.19299
1123.899,625.61446
1127.223,614.34547
1130.544,619.37601
1133.862,615.75386
1137.179,609.11375
1140.492,614.54763
1143.804,613.13869
1147.112,619.57779
1150.418,610.72325
1153.722,619.1754
1157.024,633.86517
1160.322,636.48074
1163.619,657.00739
1166.913,665.05607
1170.204,672.50195
1173.493,682.16093
1176.78,675.72335
1180.064,677.13371
1183.345,678.94495
1186.624,695.64428
1189.901,697.45408
1193.175,703.89166
1196.447,727.43412
1199.717,753.79542
1202.984,797.46037
1206.248,846.55596
1209.51,876.73777
1212.77,929.25413
1216.027,996.25792
1219.282,1022.21278
1222.534,1041.72783
1225.784,1032.07137
1229.032,1009.33493
1232.277,994.44584
1235.52,948.97171
1238.76,894.44233
1241.998,849.37197
1245.234,830.05614
1248.467,838.10506
1251.698,867.07962
1254.926,913.55859
1258.152,1012.75618
1261.375,1128.44682
1264.597,1206.91421
1267.815,1190.21469
1271.032,1100.68238
1274.246,1012.35501
1277.457,968.28843
1280.667,954.60861
1283.874,943.7438
1287.078,966.27954
1290.28,1014.97205
1293.48,1062.85814
1296.678,1156.01402
1299.873,1356.40256
1303.065,1624.17057
1306.256,1922.89583
1309.444,2061.08384
1312.629,1891.9182
1315.813,1581.12014
1318.994,1362.63793
1322.172,1291.01327
1325.349,1263.65358
1328.522,1276.12504
1331.694,1322.99995
1334.863,1408.30236
1338.03,1539.47932
1341.195,1597.81891
1344.357,1525.1956
1347.517,1435.66914
1350.675,1361.83489
1353.83,1322.80544
1356.983,1313.74972
1360.134,1335.47959
1363.282,1361.43311
1366.428,1393.62463
1369.572,1401.4706
1372.713,1419.17425
1375.853,1420.98366
1378.989,1449.55178
1382.124,1464.43582
1385.256,1449.55226
1388.386,1462.82886
1391.514,1435.87157
1394.639,1409.92164
1397.762,1350.1662
1400.883,1303.89307
1404.002,1285.18438
1407.118,1280.75894
1410.232,1281.96491
1413.344,1280.3542
1416.453,1275.12398
1419.56,1265.46636
1422.665,1275.72956
1425.768,1266.0713
1428.868,1297.2557
1431.966,1295.04435
1435.062,1295.04568
1438.156,1302.89382
1441.247,1289.21141
1444.336,1274.52378
1447.423,1271.50603
1450.508,1270.50048
1453.59,1267.07945
1456.67,1241.72715
1459.748,1233.0786
1462.824,1219.59964
1465.897,1209.74325
1468.968,1203.90498
1472.037,1201.89256
1475.104,1194.44765
1478.169,1171.10768
1481.231,1145.9599
1484.291,1132.07777
1487.349,1124.63388
1490.404,1118.39688
1493.458,1089.42189
1496.509,1102.09894
1499.558,1091.83679
1502.605,1098.67909
1505.649,1093.44688
1508.692,1098.07548
1511.732,1090.4293
1514.77,1083.18947
1517.806,1088.8223
1520.839,1088.21817
1523.871,1094.65837
1526.9,1094.05534
1529.927,1113.77723
1532.952,1119.41181
1535.974,1099.49025
1538.995,1086.00893
1542.013,1074.74462
1545.029,1053.8208
1548.043,1042.15205
1551.055,1038.53234
1554.064,1028.27047
1557.072,1026.66216
1560.077,1022.23636
1563.08,1016.8032
1566.081,1027.46711
1569.08,1057.65004
1572.077,1135.11767
1575.071,1240.54546
1578.063,1340.941
1581.053,1404.72006
1584.041,1342.95537
1587.027,1214.18684
1590.011,1076.36206
1592.993,1005.93954
1595.972,974.14799
1598.949,960.0659
1601.925,958.65842
1604.898,937.53157
1607.869,930.08284
1610.837,943.56316
1613.804,944.97236
1616.769,953.62664
1619.731,967.1087
1622.691,992.66247
1625.649,1032.09952
1628.605,1072.74318
1631.559,1114.79585
1634.511,1142.56162
1637.461,1159.26262
1640.409,1142.15927
1643.354,1122.24027
1646.297,1090.45105
1649.239,1039.34352
1652.178,998.29372
1655.115,975.15277
1658.05,956.63848
1660.983,945.77116
1663.914,963.27774
1666.843,1005.53445
1669.769,1078.37241
1672.694,1180.58076
1675.616,1273.53572
1678.537,1334.70166
1681.455,1312.97226
1684.371,1245.77247
1687.286,1136.92257
1690.198,1043.1638
1693.108,983.80734
1696.016,938.53418
1698.922,897.08458
1701.825,862.47617
1704.727,844.16606
1707.627,825.65173
1710.525,820.6205
1713.42,797.28043
1716.314,789.83479
1719.205,766.09008
1722.095,753.01103
1724.982,741.94387
1727.867,739.1265
1730.751,733.49189
1733.632,721.6199
1736.511,715.78426
1739.389,712.16116
1742.264,710.34981
1745.137,707.13079
1748.008,710.14896
1750.877,708.13564
1753.744,705.92203
1756.609,709.74598
1759.472,703.91206
1762.333,697.26973
1765.192,697.47052
1768.049,684.79284
1770.904,697.27024
1773.757,700.08919
1776.608,692.04013
1779.457,688.01565
1782.304,687.81371
1785.148,673.32418
1787.991,671.11044
1790.832,665.47617
1793.671,666.28134
1796.508,661.25133
1799.343,654.61084
1802.176,660.84963
1805.007,665.07554
1807.835,658.83618
1810.662,655.61659
1813.487,637.10296
1816.31,644.14527
1819.131,649.17648
1821.95,644.14667
1824.767,645.95836
1827.582,637.50708
1830.395,639.31757
1833.206,630.86489
1836.016,627.84657
1838.823,631.87132
1841.628,608.72773
1844.431,616.17347
1847.232,617.18002
1850.032,607.72197
1852.829,604.50252
1855.624,595.84867
1858.418,580.75428
1861.209,580.35212
1863.999,583.17045
1866.787,591.42156
1869.572,579.75034
1872.356,584.3791
1875.138,577.53709
1877.917,578.54344
1880.695,573.5115
1883.471,565.25981
1886.245,566.66904
1889.017,566.86992
1891.787,574.31685
1894.556,572.30545
1897.322,569.28665
1900.086,569.28683
1902.849,568.68413
1905.609,563.25052
1908.368,565.86562
1911.124,566.26824
1913.879,555.80398
1916.632,548.55941
1919.383,542.32099
1922.132,540.7114
1924.879,540.51042
1927.624,535.47927
1930.367,531.25369
1933.109,517.16618
1935.848,508.91498
1938.586,511.33058
1941.321,503.68403
1944.055,511.93525
1946.787,506.09979
1949.517,489.79929
1952.245,488.18934
1954.971,485.37235
1957.695,493.62313
1960.418,478.53019
1963.138,473.90211
1965.857,470.68208
1968.574,458.40637
1971.289,462.02868
1974.002,449.14945
1976.713,449.14934
1979.422,440.69668
1982.13,435.66581
1984.835,425.80498
1987.539,423.79259
1990.241,411.51696
1992.941,410.51065
1995.639,408.49764
1998.335,402.66162
2001.029,397.42963
2003.722,394.81316
2006.412,390.58748
2009.101,379.71982
2011.788,383.14112
2014.473,377.70734
2017.156,372.67686
2019.838,372.4752
2022.517,374.28646
2025.195,364.42509
2027.871,360.1992
2030.545,365.02938
2033.217,359.59546
2035.887,361.20529
2038.556,353.55799
2041.223,352.95418
2043.887,347.72171
2046.55,351.74662
2049.212,343.49541
2051.871,341.88572
2054.529,338.26334
2057.184,340.47662
2059.838,329.81056
2062.49,332.62801
2065.14,327.59711
2067.789,325.3828
2070.436,328.40184
2073.08,324.77934
2075.723,321.35818
2078.365,316.12556
2081.004,316.52811
2083.642,310.49044
2086.277,307.67277
2088.911,308.88054
2091.544,310.08824
2094.174,296.80569
2096.803,300.42786
2099.429,302.03802
2102.054,298.21434
2104.678,296.00071
2107.299,292.37802
2109.919,287.34707
2112.537,291.57334
2115.153,281.91318
2117.767,282.51683
2120.379,280.70545
2122.99,280.50407
2125.599,277.6866
2128.206,272.25295
2130.812,275.47322
2133.415,273.66158
2136.017,268.63025
2138.617,269.6368
2141.215,260.37898
2143.812,261.58665
2146.407,260.5803
2149.0,260.78148
2151.591,255.54863
2154.181,257.56158
2156.768,256.35362
2159.354,258.36645
2161.939,256.15253
2164.521,249.10893
2167.102,259.57413
2169.681,251.72492
2172.258,252.73148
2174.833,252.12765
2177.407,251.32249
2179.979,248.10236
2182.549,250.71898
2185.118,246.29133
2187.685,244.4797
2190.25,241.46093
2192.813,245.28497
2195.375,239.24715
2197.935,246.49249
2200.493,243.27259
2203.049,238.24118
2205.604,242.66855
2208.157,240.25358
2210.708,239.44866
2213.257,240.65621
2215.805,236.42961
2218.351,237.436
2220.895,239.04618
2223.438,237.03347
2225.979,233.00862
2228.518,227.37338
2231.056,231.59972
2233.591,230.1909
2236.125,229.98958
2238.658,228.78233
2241.188,231.1972
2243.717,228.78192
2246.245,225.56177
2248.77,225.15951
2251.294,223.75086
2253.816,223.75081
2256.337,218.51817
2258.855,221.33576
2261.372,217.71305
2263.888,215.49932
2266.402,217.5119
2268.914,216.10286
2271.424,211.27287
2273.932,209.66286
2276.439,213.28532
2278.945,214.49317
2281.448,212.883
2283.95,213.48687
2286.45,207.65017
2288.949,213.08415
2291.446,205.43629
2293.941,205.4364
2296.435,210.46807
2298.927,207.04638
2301.417,203.62529
2303.905,207.4492
2306.392,209.26053
2308.877,208.45539
2311.361,201.61278
2313.843,206.24155
2316.323,203.02141
2318.802,203.02165
2321.279,210.66937
2323.754,198.19134
2326.228,206.04034
2328.7,199.3989
2331.17,201.00875
2333.639,199.80158
2336.106,201.41119
2338.571,203.8266
2341.035,193.96499
2343.497,193.96487
2345.957,193.96486
2348.416,192.35471
2350.873,194.77014
2353.329,195.17245
2355.783,189.53735
2358.235,193.15993
2360.686,195.57509
2363.135,188.32976
2365.582,193.16016
2368.028,184.50606
2370.472,190.34242
2372.915,185.31086
2375.355,183.49975
2377.795,187.52488
2380.232,182.49357
2382.668,178.87072
2385.103,180.27959
2387.536,178.87072
2389.967,173.43663
2392.397,175.85168
2394.824,165.78871
2397.251,177.4617
2399.676,172.02782
2402.099,169.21008
2404.52,169.0087
2406.94,165.99002
2409.359,168.20396
2411.775,171.22268
2414.191,168.40522
2416.604,169.41124
2419.016,166.39245
2421.426,164.58133
2423.835,166.39255
2426.242,166.19146
2428.648,165.78868
2431.052,163.77625
2433.454,164.38014
2435.855,166.79512
2438.255,161.56255
2440.652,165.78869
2443.048,165.38622
2445.443,161.76365
2447.836,164.5816
2450.227,164.98394
2452.617,165.38639
2455.005,161.56242
2457.392,158.54374
2459.777,162.97151
2462.16,164.98399
2464.542,156.73237
2466.923,166.39287
2469.301,156.53115
2471.679,155.32361
2474.054,159.34891
2476.428,160.55623
2478.801,162.16642
2481.172,156.93362
2483.541,154.92111
2485.909,157.94002
2488.275,161.56258
2490.64,154.31728
2493.003,151.29826
2495.365,155.12222
2497.725,153.10958
2500.084,153.31107
2502.441,150.89583
2504.796,154.31734
2507.15,155.72613
2509.503,153.31123
2511.853,152.30478
2514.203,147.67569
2516.55,149.28593
2518.897,147.87684
2521.241,145.26069
2523.585,143.44933
2525.926,143.65062
2528.266,139.62544
2530.605,140.43036
2532.942,137.61279
2535.277,136.40504
2537.611,137.21018
2539.944,138.82027
2542.275,142.44291
2544.604,139.22285
2546.932,140.22908
2549.259,140.43041
2551.583,133.18502
2553.907,135.60018
2556.229,136.00242
2558.549,132.17868
2560.868,132.98374
2563.185,126.14076
2565.501,127.75094
2567.815,131.17234
2570.128,127.95208
2572.439,132.17868
2574.749,129.96479
2577.057,128.95851
2579.364,128.1534
2581.669,123.1219
2583.973,128.95848
2586.275,122.51809
2588.576,125.53704
2590.875,122.5182
2593.173,122.51814
2595.469,123.72574
2597.764,121.51192
2600.058,122.92073
2602.349,125.13458
2604.64,121.31064
2606.929,120.70674
2609.216,121.91446
2611.502,114.06509
2613.786,120.50533
2616.069,118.09042
2618.351,119.70046
2620.631,115.07139
2622.909,115.07139
2625.186,124.73207
2627.462,114.06529
2629.736,113.864
2632.008,112.85757
2634.28,111.44885
2636.549,116.88275
2638.817,110.84505
2641.084,110.24122
2643.349,109.6374
2645.613,110.04001
2647.876,110.44252
2650.136,106.61852
2652.396,108.22862
2654.654,106.2161
2656.91,108.22874
2659.165,104.60605
2661.419,101.7884
2663.671,107.22238
2665.922,105.00852
2668.171,104.4048
2670.419,102.39211
2672.665,101.78835
2674.91,99.57442
2677.154,104.40478
2679.396,101.78825
2681.636,99.57453
2683.875,104.80717
2686.113,100.98326
2688.349,99.17182
2690.584,100.17819
2692.818,100.78204
2695.049,99.57444
2697.28,96.35425
2699.509,93.13413
2701.737,95.95176
2703.963,93.73789
2706.188,96.15316
2708.411,92.32914
2710.633,94.54301
2712.853,95.95182
2715.073,94.14049
2717.29,94.74433
2719.506,89.91397
2721.721,94.14058
2723.935,92.93287
2726.147,90.3166
2728.357,92.93299
2730.566,91.92665
2732.774,92.53039
2734.98,92.12795
2737.185,91.72538
2739.389,87.90149
2741.591,89.71282
2743.792,91.72545
2745.991,93.9393
2748.189,94.54308
2750.385,88.70654
2752.58,91.32296
2754.774,93.73814
2756.966,88.50523
2759.157,85.48578
2761.346,93.33546
2763.534,89.51158
2765.721,90.51789
2767.906,89.91407
2770.09,92.12793
2772.273,88.10273
2774.454,92.12799
2776.634,89.91398
2778.812,88.90787
2780.989,96.3545
2783.164,91.52417
2785.339,88.3039
2787.511,88.1028
2789.683,89.51152
2791.853,90.51791
2794.021,87.49899
2796.189,90.92042
2798.354,90.11539
2800.519,87.70022
2802.682,88.50534
2804.844,82.46745
2807.004,86.49271
2809.163,84.27885
2811.321,84.68133
2813.477,82.06491
2815.632,88.3041
2817.785,81.86376
2819.938,80.65612
2822.088,85.08391
2824.238,86.69392
2826.386,83.07133
2828.533,88.30402
2830.678,83.87631
2832.822,81.46115
2834.965,82.46753
2837.106,81.86369
2839.246,81.86369
2841.384,76.42965
2843.521,81.86362
2845.657,83.47371
2847.792,80.25357
2849.925,83.27249
2852.057,81.25988
2854.187,84.68136
2856.316,83.27252
2858.444,84.48008
2860.57,81.46111
2862.696,88.70648
2864.819,85.285
2866.942,80.6559
2869.063,82.46724
2871.182,88.50512
2873.301,89.51145
2875.418,92.5304
2877.534,89.71284
2879.648,92.32923
2881.761,97.56204
2883.873,97.36079
2885.983,97.15955
2888.092,96.95824
2890.2,96.15309
2892.306,98.76964
2894.411,102.79487
2896.515,97.15948
2898.617,97.36072
2900.718,100.9835
2902.818,104.60619
2904.917,105.20991
2907.014,111.44893
2909.11,113.86416
2911.204,113.2603
2913.297,122.11572
2915.389,125.33593
2917.48,127.5496
2919.569,133.99006
2921.657,136.80765
2923.743,141.83911
2925.829,153.71325
2927.913,162.76997
2929.995,170.61892
2932.077,183.90195
2934.157,185.71309
2936.236,191.5495
2938.313,202.21624
2940.389,207.85126
2942.464,219.12141
2944.538,214.89496
2946.61,211.2725
2948.681,207.85139
2950.751,192.75719
2952.819,185.9144
2954.886,175.85167
2956.952,162.36737
2959.016,158.34224
2961.08,143.65051
2963.142,129.56237
2965.202,126.34225
2967.262,119.0969
2969.32,116.48059
2971.376,107.8264
2973.432,107.62503
2975.486,98.36707
2977.539,103.80132
2979.591,96.75701
2981.641,96.75709
2983.69,97.76347
2985.738,91.12177
2987.785,90.51813
2989.83,90.31684
2991.874,87.0966
2993.916,84.68155
2995.958,86.49298
2997.998,86.69412
3000.037,81.86385
3002.075,78.64365
3004.111,79.0462
3006.146,79.85125
3008.18,75.42349
3010.212,75.82599
3012.244,74.01462
3014.274,72.20327
3016.302,74.01471
3018.33,69.38565
3020.356,67.57431
3022.381,65.15923
3024.405,64.1529
3026.427,65.15922
3028.449,64.95796
3030.469,61.13402
3032.487,-1.05665
3034.505,0.15095
3036.521,-1.45918
