raman_shift_reported_cm-1,rep1,rep2,rep3
0.764,1639.78858,1752.49612,1868.19226
4.975,1313.06103,1386.34577,1492.19602
9.182,1097.17117,1145.7122,1233.05925
13.386,912.45811,971.06239,1045.13384
17.586,782.67011,819.94688,899.25306
21.783,660.72526,688.34419,763.82985
25.977,549.44289,578.4713,623.77429
30.167,458.88465,476.24176,525.16825
34.353,375.36791,393.53036,436.21934
38.536,325.45895,342.81667,380.87761
42.716,287.22111,304.57899,333.78533
46.892,259.04584,275.59884,299.77413
51.064,240.93297,254.46725,278.84392
55.234,236.50533,249.23461,276.02633
59.399,236.70666,261.5111,295.14528
63.562,258.64316,285.66122,325.33266
67.721,289.03217,325.50873,375.84583
71.876,322.43968,374.00946,427.76706
76.028,381.80777,446.6588,505.44638
80.177,494.10123,584.70852,668.44665
84.322,682.05344,833.62661,958.60816
88.464,911.44905,1153.1534,1310.91896
92.602,1112.86049,1399.81886,1585.13476
96.737,1196.96383,1519.52499,1721.3306
100.868,1149.47843,1461.98417,1658.15996
104.997,1050.28167,1303.24245,1504.65752
109.121,932.7741,1157.97736,1315.94318
113.243,850.27461,1043.49082,1202.06526
117.361,796.34556,953.5471,1113.53357
121.475,740.40448,907.0654,1057.9994
125.586,723.50059,865.61353,1003.06797
129.694,697.34057,823.55804,961.8188
133.799,663.93626,779.28878,927.41061
137.9,640.3919,757.35484,899.03853
141.997,645.02001,761.17788,889.58115
146.092,650.65293,764.59691,907.0848
150.183,682.24584,809.46941,959.60164
154.27,763.74127,907.66276,1063.22337
158.355,927.33295,1113.90358,1294.00116
162.436,1229.14205,1514.27697,1727.74819
166.513,1665.30147,2087.98516,2368.99873
170.588,1953.76407,2490.04546,2796.16157
174.658,1821.60293,2285.69944,2575.94661
178.726,1386.05774,1723.88256,1933.31516
182.79,1046.43953,1270.42407,1446.89054
186.851,867.96408,1052.12099,1193.99232
190.909,785.86722,938.43828,1066.63224
194.963,727.11032,834.81282,972.26596
199.014,686.26185,785.51434,889.5681
203.062,646.2168,737.62256,836.44588
207.107,616.23411,696.17091,780.70887
211.148,597.92288,652.90824,747.50832
215.185,568.34255,626.74925,709.67916
219.22,552.84802,613.87097,680.9045
223.251,545.60451,608.2375,670.44183
227.279,545.20111,598.7787,673.45904
231.304,549.02388,610.65048,671.84847
235.325,557.87817,603.40639,679.89759
239.344,546.81116,590.72975,655.349
243.358,522.05978,563.76514,620.537
247.37,513.8091,544.84926,607.05458
251.378,506.76547,538.40936,594.1754
255.383,501.13314,540.02161,585.12267
259.385,507.97465,530.56315,583.51228
263.384,489.05876,525.3313,579.89037
267.379,497.51078,534.58817,579.28683
271.371,495.29559,517.48164,569.82713
275.36,489.66094,523.11609,573.04673
279.346,498.51584,512.04884,575.05969
283.328,485.43574,512.25026,577.47467
287.308,491.47303,514.46408,567.81586
291.284,486.04035,507.82406,573.45114
295.256,479.80092,511.04262,555.33899
299.226,483.21913,508.42363,559.36037
303.192,480.20144,506.21094,556.94657
307.155,488.65349,511.44322,571.83785
311.115,489.65928,514.86378,567.20911
315.072,502.73956,530.55999,582.30143
319.025,509.38037,540.21923,594.37529
322.976,513.00254,538.60935,604.43667
326.923,520.85089,551.48844,617.11435
330.867,535.33934,568.99521,637.43794
334.808,544.59531,578.04982,644.48004
338.745,552.84617,587.10556,652.73076
342.68,565.52419,598.77735,662.79261
346.611,579.40985,608.83959,680.30007
350.539,573.57346,613.26584,673.86004
354.464,580.81712,611.8566,668.42627
358.386,582.02602,620.10855,680.30029
362.304,587.4586,619.30299,689.55587
366.22,598.12511,643.85415,704.04558
370.132,600.33869,648.88488,711.49092
374.041,613.01639,650.89745,725.77806
377.947,632.7357,673.43364,743.08193
381.85,651.24693,703.41428,778.49473
385.75,703.16375,780.28165,858.17764
389.647,857.90257,965.19882,1070.2535
393.54,1163.93763,1378.05588,1531.58222
397.431,1426.88743,1747.00318,1927.0645
401.318,1345.81137,1594.31837,1779.81932
405.202,955.69352,1119.92732,1230.20872
409.083,726.91487,815.30131,889.57546
412.961,655.47933,713.6839,768.84409
416.836,626.50313,675.45181,741.88112
420.708,605.17148,659.55346,703.64706
424.576,593.09965,629.3714,684.33174
428.442,587.06494,621.32459,683.32822
432.304,586.2601,619.91607,668.83994
436.164,576.60012,612.87213,664.41199
440.02,584.04648,613.27539,670.24847
443.873,584.04663,612.87309,668.63882
447.723,582.03539,621.92964,673.46956
451.57,579.01708,609.05103,672.46363
455.414,586.06014,615.28911,670.25001
459.255,582.84078,613.07595,670.85411
463.093,586.26196,625.95497,677.09244
466.928,594.31075,628.97288,684.33604
470.759,594.31155,635.01065,689.97134
474.588,604.97806,641.04883,696.00955
478.414,596.92776,648.49328,709.89305
482.236,588.87802,639.03499,682.92809
486.056,558.69176,599.79361,654.9559
489.872,540.78152,571.41941,629.19808
493.686,533.33764,566.39052,599.41795
497.496,506.5737,550.49358,603.64449
501.304,509.38987,543.65033,584.32478
505.108,500.73623,538.61897,577.48234
508.909,491.07616,525.73918,571.0421
512.708,481.81942,524.33074,556.55351
516.503,483.42862,510.84717,561.58354
520.295,477.99488,512.25548,551.52147
524.085,481.01439,512.65896,551.52256
527.871,474.17258,509.23826,549.30932
531.654,474.57253,497.36261,540.25086
535.435,452.83576,491.72467,520.52636
539.212,457.06146,495.54783,524.75193
542.986,467.52742,488.30509,523.54639
546.758,470.74867,500.78327,543.67144
550.526,470.74855,511.24739,542.66513
554.291,486.24399,516.68093,557.95907
558.054,495.09952,518.69447,573.85776
561.813,504.15655,538.21574,573.0544
565.57,514.22046,555.1217,585.53322
569.323,525.28985,561.56267,605.85931
573.074,530.52284,566.9969,614.7145
576.821,536.35774,580.88105,623.36636
580.566,556.27739,602.81256,640.87035
584.307,592.69944,643.05742,698.42023
588.046,754.08199,862.99219,933.04011
591.782,1251.26847,1500.79155,1668.39602
595.515,1662.48243,2049.56282,2286.12903
599.245,1370.96781,1674.99764,1856.47225
602.971,758.10054,875.86318,963.41555
606.695,543.99675,602.20296,636.63827
610.417,516.83234,545.45796,597.19985
614.135,514.01584,548.07485,573.45541
617.85,508.17963,536.20164,580.49812
621.562,506.16504,535.99804,573.65368
625.272,502.33916,533.37944,562.78446
628.978,509.78536,532.7763,581.49952
632.682,543.59477,592.3432,629.9983
636.382,571.1679,631.18526,675.48078
640.08,559.09525,598.38607,641.67594
643.775,509.59092,540.22913,575.47031
647.467,489.26548,521.31247,553.73651
651.156,481.01337,521.71349,551.11892
654.842,477.99386,506.21732,537.83639
658.525,480.00664,516.0783,547.29485
662.206,491.47774,521.91475,551.32018
665.883,484.83648,523.92664,554.53943
669.558,475.7799,512.25402,545.48289
673.23,475.376,508.02654,543.06644
676.899,474.97365,509.63655,536.62711
680.565,486.24507,527.95126,555.54552
684.228,503.55107,548.27555,591.56572
687.888,525.68559,570.00722,626.17571
691.545,527.69813,573.22714,615.712
695.2,497.71532,532.98186,572.04633
698.852,478.19592,511.45032,548.50273
702.501,474.97675,501.79166,541.0578
706.147,459.88252,497.96671,529.18339
709.79,465.31463,488.10472,530.38928
713.43,439.55512,496.35427,518.71649
717.068,458.07042,493.94095,523.34649
720.702,459.48002,494.54566,519.72531
724.334,459.68159,496.35715,524.75657
727.963,455.65585,481.66582,525.76163
731.589,457.86935,506.41776,535.62198
735.213,463.30167,501.38567,530.79108
738.833,463.90411,516.07441,540.85127
742.451,471.95291,519.09219,551.11335
746.066,481.61254,528.75172,571.03562
749.678,506.16419,554.71179,593.1721
753.287,532.52642,579.46388,627.58296
756.894,559.89392,619.50847,684.52999
760.498,626.09756,702.01011,766.62763
764.098,773.99712,894.97869,978.10403
767.697,1288.07818,1522.7097,1701.57725
771.292,2364.68159,2922.20807,3281.96681
774.884,2812.7635,3552.77259,3991.26084
778.474,2003.03352,2532.46521,2806.60048
782.061,1013.84546,1223.54751,1360.78523
785.645,778.82767,926.7718,1020.56052
789.227,824.30131,990.35201,1091.58336
792.805,828.52564,982.30222,1067.23619
796.381,691.09249,792.55845,864.01556
799.954,563.31446,622.9289,673.66331
803.525,507.1686,551.08768,596.59093
807.092,477.3836,517.27817,554.1287
810.657,466.92036,505.80895,545.27569
814.219,464.30497,502.18748,541.45308
817.779,460.48095,493.73507,525.75634
821.335,454.24232,489.71005,523.9449
824.889,451.82779,489.50915,531.79332
828.44,462.89619,512.6515,548.89851
831.989,464.90865,512.04791,549.30109
835.534,461.085,506.81565,537.62944
839.077,439.75305,476.02584,511.66942
842.617,445.38845,470.19083,505.43206
846.155,431.50354,474.61853,506.84125
849.689,436.33116,473.20761,500.39936
853.221,431.29952,465.55991,490.5381
856.751,426.87265,465.96274,488.32491
860.277,431.70303,466.76843,488.3257
863.801,431.90471,461.33556,504.22368
867.322,432.10627,463.75072,495.97347
870.841,429.08792,461.1349,490.5404
874.356,440.55855,467.97701,496.57753
877.869,431.30147,466.36696,494.96748
881.38,421.64131,451.87716,493.96043
884.887,429.48989,454.89603,486.11265
888.392,424.05513,447.24763,480.47656
891.895,412.58541,442.41884,478.86763
895.394,419.62865,445.23606,475.44654
898.891,407.15139,436.58234,475.64718
902.385,416.81111,440.20492,474.23889
905.877,416.61056,442.82173,468.80633
909.366,408.15789,444.83338,477.86114
912.852,417.61532,448.05234,477.25656
916.335,426.47013,473.20714,498.789
919.816,427.47607,467.5723,507.03926
923.294,432.91038,466.16465,510.05884
926.77,425.26341,464.95729,495.36886
930.243,432.70897,469.78669,496.576
933.713,430.29486,464.15291,497.18056
937.181,438.74559,466.36519,502.41122
940.646,444.58202,476.02507,520.12036
944.108,446.59443,481.05598,517.70563
947.568,459.67455,497.55694,535.41379
951.025,475.17039,510.63789,563.98943
954.479,482.81772,540.21949,589.94853
957.931,494.28949,559.13682,602.42644
961.38,523.86938,583.48405,629.18798
964.826,618.64783,696.97467,765.21375
968.27,739.78389,853.92435,936.64755
971.711,884.45696,1042.45524,1151.32966
975.15,1715.36862,2092.17949,2347.8465
978.586,4582.71422,5821.16227,6600.56945
982.019,5529.19232,7120.887,8024.61169
985.45,3350.63383,4282.87407,4816.31179
988.878,1029.93291,1262.16556,1405.0336
992.304,636.75726,725.14466,798.21232
995.727,594.50006,661.35756,716.51786
999.147,639.37326,723.73619,792.77954
1002.565,898.94649,1060.96862,1169.44037
1005.98,1237.77117,1514.04812,1687.08091
1009.393,1191.90009,1433.17553,1599.37273
1012.803,780.63618,905.64159,1006.27159
1016.21,547.21645,600.79432,666.41987
1019.615,495.4992,539.82108,601.22187
1023.017,473.76399,520.0983,566.40689
1026.417,480.60496,512.4503,552.92317
1029.814,461.28568,492.12496,540.64727
1033.209,463.70046,490.91751,542.25707
1036.601,460.68243,504.60197,542.86136
1039.99,456.05288,493.33165,546.88465
1043.377,461.08348,493.53258,541.24984
1046.761,472.75478,499.36799,543.86544
1050.143,486.64089,510.83926,563.18466
1053.522,476.7791,515.06375,566.20157
1056.899,479.99965,525.32746,569.82465
1060.273,472.55493,505.20522,566.00244
1063.644,476.3779,506.00963,560.56863
1067.013,467.52268,504.80128,559.3602
1070.38,471.14478,512.64923,568.61662
1073.743,483.01749,511.64293,576.86687
1077.105,490.86635,517.27822,584.71569
1080.464,499.11642,518.88754,588.33719
1083.82,507.36756,536.59656,602.0214
1087.174,512.39801,549.47495,616.10688
1090.525,515.41688,559.33566,625.36378
1093.874,545.80263,582.27557,667.41962
1097.22,560.89534,619.30198,700.62202
1100.564,594.90239,654.31455,735.83494
1103.905,650.44025,739.22971,829.40038
1107.243,769.36198,859.55702,986.94804
1110.579,894.31809,1040.24407,1175.47557
1113.913,894.5195,1029.37927,1161.79446
1117.244,765.9422,865.39326,976.48649
1120.573,656.27556,721.52207,818.33327
1123.899,626.69605,678.66241,768.02976
1127.223,616.23197,666.58866,765.81599
1130.544,652.65372,706.43068,799.82163
1133.862,721.06947,801.80856,922.76294
1137.179,767.95418,859.15541,998.82015
1140.492,749.44293,831.38884,943.08685
1143.804,706.17997,780.48052,904.05151
1147.112,750.04595,841.44888,952.14044
1150.418,798.33766,904.62894,1033.42685
1153.722,847.43511,963.38306,1089.16098
1157.024,930.33484,1064.58964,1211.89188
1160.322,975.00259,1119.9192,1265.00594
1163.619,919.27009,1047.89188,1193.98794
1166.913,823.49204,933.6059,1048.31893
1170.204,720.0661,803.01892,921.358
1173.493,638.36928,697.37847,795.59927
1176.78,604.16204,645.66526,738.05226
1180.064,597.92551,630.17243,738.65787
1183.345,604.96873,631.98368,725.57864
1186.624,603.5581,633.39015,732.0153
1189.901,598.9288,633.59028,723.36149
1193.175,596.71398,630.36926,732.21362
1196.447,598.92708,633.58845,736.63997
1199.717,605.76997,646.46813,745.89753
1202.984,614.22189,651.49915,740.26378
1206.248,610.3977,646.66881,744.48835
1209.51,609.19014,638.8208,745.09178
1212.77,624.48351,652.9067,757.56753
1216.027,636.96046,678.86564,782.92224
1219.282,645.00907,677.05416,792.9826
1222.534,665.93538,696.16923,811.09079
1225.784,682.83906,718.90824,845.49972
1229.032,697.52818,745.06678,862.60271
1232.277,718.05297,760.56084,898.82116
1235.52,735.96078,769.21233,912.50243
1238.76,747.83163,788.52807,932.21959
1241.998,765.33886,820.72397,970.24948
1245.234,806.99173,867.00417,1021.75925
1248.467,859.71049,936.62374,1092.9855
1251.698,936.37188,1025.15458,1217.92868
1254.926,1044.41865,1162.57341,1377.26895
1258.152,1156.69076,1298.98485,1520.5125
1261.375,1296.92181,1468.18008,1711.62381
1264.597,1477.58601,1732.92307,2000.88817
1267.815,1665.48168,1973.30507,2282.28179
1271.032,1710.54434,2036.26592,2343.82914
1274.246,1563.0882,1804.74039,2103.47506
1277.457,1308.38902,1496.54561,1756.88491
1280.667,1135.76775,1263.37592,1493.35567
1283.874,1028.72882,1120.12509,1340.85976
1287.078,1004.58445,1072.44072,1294.18439
1290.28,1019.27282,1088.13485,1305.85382
1293.48,1054.08064,1142.65948,1371.03782
1296.678,1118.26405,1210.664,1452.71825
1299.873,1207.1943,1320.31451,1589.11748
1303.065,1287.67057,1427.1431,1700.56439
1306.256,1280.02498,1394.7522,1685.27524
1309.444,1179.62854,1267.80179,1549.68476
1312.629,1115.44707,1170.42461,1429.58213
1315.813,1098.34554,1133.40469,1402.02073
1318.994,1097.94249,1126.16085,1405.84239
1322.172,1098.94708,1128.57378,1385.1186
1325.349,1112.22828,1142.25733,1406.44663
1328.522,1120.47539,1156.33904,1434.00595
1331.694,1113.83394,1155.93472,1429.97989
1334.863,1122.68659,1156.33699,1448.89075
1338.03,1145.02566,1176.66406,1460.76819
1341.195,1139.39135,1174.85253,1453.12235
1344.357,1149.85431,1185.11421,1474.24712
1347.517,1158.50466,1201.00748,1480.88452
1350.675,1174.60078,1208.65323,1497.38161
1353.83,1183.65547,1223.14011,1518.50638
1356.983,1182.24511,1208.04847,1509.652
1360.134,1180.63688,1221.93228,1520.51732
1363.282,1191.09942,1217.70753,1520.11538
1366.428,1196.53326,1218.71508,1525.34799
1369.572,1198.74622,1231.39014,1546.67247
1372.713,1209.00675,1227.36579,1547.47658
1375.853,1190.09331,1229.77906,1532.78936
1378.989,1197.94015,1243.66162,1542.04373
1382.124,1196.52907,1224.94782,1531.17668
1385.256,1188.68551,1229.37727,1516.69594
1388.386,1170.9791,1212.87819,1517.70042
1391.514,1176.61344,1213.08024,1506.23436
1394.639,1172.79291,1219.11839,1491.14881
1397.762,1162.93145,1202.21511,1498.18649
1400.883,1155.48731,1198.79497,1481.28769
1404.002,1153.87952,1190.54779,1480.28413
1407.118,1142.41185,1199.80354,1482.09564
1410.232,1164.54266,1212.07537,1480.28365
1413.344,1172.1871,1217.10414,1510.86146
1416.453,1198.14218,1263.78178,1550.29304
1419.56,1242.40463,1319.30999,1598.57436
1422.665,1268.96447,1374.84035,1660.33707
1425.768,1252.66684,1347.679,1639.41401
1428.868,1193.31412,1284.90761,1546.47154
1431.966,1135.3706,1193.96961,1473.04349
1435.062,1105.39279,1160.57199,1436.83227
1438.156,1109.01585,1169.02384,1419.93471
1441.247,1111.42908,1161.37704,1428.98643
1444.336,1087.48549,1123.75212,1394.78439
1447.423,1061.73154,1096.99243,1353.5413
1450.508,1038.3921,1065.20266,1321.55273
1453.59,1021.89259,1057.35506,1303.64603
1456.67,1016.25723,1037.83656,1291.57255
1459.748,1013.84503,1039.85095,1298.81836
1462.824,1013.04112,1036.6326,1286.54687
1465.897,1002.37893,1029.18983,1294.39573
1468.968,1013.03998,1040.45434,1270.45005
1472.037,1016.66133,1046.49011,1305.45688
1475.104,1021.28854,1056.34859,1295.59784
1478.169,1007.60556,1044.47656,1308.67402
1481.231,1017.26527,1049.50853,1299.0192
1484.291,1016.66225,1051.11879,1305.0557
1487.349,1032.75927,1054.13737,1298.41703
1490.404,1030.34501,1065.00265,1324.97446
1493.458,1038.19028,1075.26222,1324.77097
1496.509,1058.31203,1088.1405,1350.32354
1499.558,1069.98108,1092.56615,1359.57715
1502.605,1068.77523,1097.59762,1355.55516
1505.649,1064.14662,1098.60269,1357.56586
1508.692,1053.28247,1102.22528,1365.01098
1511.732,1074.40849,1108.26087,1361.18783
1514.77,1069.78422,1108.46563,1371.05046
1517.806,1075.6183,1102.02626,1365.41609
1520.839,1053.88766,1108.66541,1367.02493
1523.871,1066.96764,1108.86833,1378.69595
1526.9,1069.58388,1115.10621,1380.10501
1529.927,1065.96599,1114.50659,1373.06843
1532.952,1065.96685,1124.97004,1379.90995
1535.974,1067.57416,1119.53511,1361.39756
1538.995,1070.99403,1112.49236,1360.18962
1542.013,1064.96099,1123.1594,1365.2234
1545.029,1048.66487,1099.62028,1356.57438
1548.043,1069.9941,1126.78418,1366.03199
1551.055,1071.40466,1141.27304,1395.40835
1554.064,1103.39616,1176.68432,1429.8111
1557.072,1127.34098,1198.41555,1453.15061
1560.077,1163.15603,1249.11857,1512.09866
1563.08,1234.98385,1345.89245,1606.24983
1566.081,1309.22481,1443.26752,1731.17783
1569.08,1355.70236,1505.63698,1804.00317
1572.077,1408.61946,1561.77117,1870.79504
1575.071,1586.86596,1776.82334,2132.09109
1578.063,1958.2196,2295.99421,2691.0264
1581.053,2399.32911,2875.61998,3337.13667
1584.041,2620.164,3148.90568,3642.55101
1587.027,2512.55857,3019.79988,3497.58041
1590.011,2246.46161,2683.35597,3112.72596
1592.993,2003.47857,2357.33902,2759.20123
1595.972,1813.98658,2119.59227,2496.74556
1598.949,1711.99978,1986.63797,2344.09665
1601.925,1664.12247,1931.12082,2236.08868
1604.898,1651.44981,1910.20183,2237.90082
1607.869,1721.04862,1984.82307,2323.9779
1610.837,1825.85458,2131.66021,2492.52098
1613.804,1898.87777,2229.01503,2595.2956
1616.769,1894.05421,2244.91019,2607.16756
1619.731,1821.63704,2153.99558,2493.13406
1622.691,1713.00564,1976.58019,2317.54692
1625.649,1593.306,1839.18733,2146.97908
1628.605,1476.61985,1679.05625,1983.24161
1631.559,1395.74319,1571.22645,1854.50068
1634.511,1324.72196,1489.14359,1756.73334
1637.461,1278.24717,1409.8775,1687.93466
1640.409,1236.59813,1359.17627,1630.59842
1643.354,1195.35243,1316.92606,1563.00297
1646.297,1160.94832,1256.97125,1508.88702
1649.239,1108.63451,1203.04919,1447.72596
1652.178,1072.61549,1154.35509,1393.20002
1655.115,1038.40841,1096.20524,1330.62744
1658.05,982.2679,1048.31499,1276.5026
1660.983,960.73636,1011.89424,1234.45021
1663.914,930.35421,990.76829,1204.07069
1666.843,920.0944,966.22272,1193.61114
1669.769,905.20482,945.49815,1163.2303
1672.694,885.28203,920.74631,1139.48536
1675.616,873.81376,915.91831,1115.7448
1678.537,865.96822,909.07905,1106.69313
1681.455,860.73617,906.06042,1089.59018
1684.371,840.8151,893.98705,1078.52337
1687.286,843.02812,870.24297,1072.88907
1690.198,840.01234,874.67239,1055.38723
1693.108,828.14093,857.36819,1043.31548
1696.016,819.89081,858.37424,1041.50454
1698.922,816.67212,849.72269,1029.23184
1701.825,810.23412,833.02251,1016.15454
1704.727,800.77752,828.19411,996.83932
1707.627,782.66553,806.86262,977.52053
1710.525,773.20735,809.67906,975.50757
1713.42,753.48894,788.75358,960.61985
1716.314,757.31187,780.50303,941.7052
1719.205,738.3964,764.00237,946.13164
1722.095,733.76877,772.45442,936.07162
1724.982,734.17149,765.2106,916.15154
1727.867,727.12835,758.36874,912.93183
1730.751,720.08513,745.08756,904.8828
1733.632,714.45117,734.82544,892.60904
1736.511,702.37744,741.86833,882.34685
1739.389,702.98013,723.95812,869.06516
1742.264,705.5958,718.72591,874.69892
1745.137,690.30306,716.51304,871.27898
1748.008,687.4856,709.46981,857.99817
1750.877,690.90548,706.0479,858.19813
1753.744,690.70415,711.48094,850.95409
1756.609,687.28387,711.28034,855.18047
1759.472,690.90764,711.28205,854.37765
1762.333,686.68007,709.87164,849.94861
1765.192,682.65507,709.46874,849.34442
1768.049,676.01422,708.86476,842.7038
1770.904,675.2105,703.23163,852.16266
1773.757,691.71303,704.0383,856.39044
1776.608,690.50576,713.0937,849.14663
1779.457,680.64561,708.26433,849.34799
1782.304,667.56494,699.00708,834.05429
1785.148,665.14921,677.877,828.21765
1787.991,651.46532,672.84605,818.55875
1790.832,645.22732,663.58964,801.45506
1793.671,646.03248,663.38865,796.42477
1796.508,646.23445,660.97464,801.05383
1799.343,636.97792,657.55385,796.42586
1802.176,639.79576,660.17047,790.18866
1805.007,628.12434,656.95084,782.13977
1807.835,627.92197,659.56565,779.3212
1810.662,625.50727,646.88818,782.74214
1813.487,624.50079,639.84474,772.27806
1816.31,619.26796,636.42301,759.19749
1819.131,616.24989,639.64315,766.84455
1821.95,622.08658,628.77757,758.99793
1824.767,620.67852,633.4065,764.83418
1827.582,605.18398,632.80327,752.96241
1830.395,599.14639,612.67937,751.55312
1833.206,603.57266,616.30068,746.52138
1836.016,605.38392,618.91687,751.14977
1838.823,598.1396,614.8923,746.11924
1841.628,591.29588,606.63993,721.36619
1844.431,585.46021,607.04253,730.22031
1847.232,593.30871,598.79233,734.64775
1850.032,579.02098,606.03664,718.95195
1852.829,588.27804,601.81102,719.15352
1855.624,579.02047,595.57198,707.68258
1858.418,568.7557,585.70966,697.8202
1861.209,561.71278,579.06925,691.18005
1863.999,564.93356,583.29622,703.65744
1866.787,550.24386,581.08316,696.21263
1869.572,552.05532,576.45512,689.17007
1872.356,556.08039,573.43695,681.32256
1875.138,550.04327,568.40604,682.93236
1877.917,553.6657,568.80869,680.92028
1880.695,544.60905,569.41134,678.30303
1883.471,538.77218,557.93988,686.14967
1886.245,536.15667,554.92193,669.24715
1889.017,548.02927,566.99569,667.03321
1891.787,541.79213,556.13021,667.83958
1894.556,551.65362,559.55214,675.48744
1897.322,549.03729,564.98525,665.82808
1900.086,545.01273,553.1125,664.62091
1902.849,537.97038,554.11965,675.48853
1905.609,533.54294,550.6984,661.20089
1908.368,525.29129,548.08139,654.35791
1911.124,533.13969,544.45927,650.13223
1913.879,525.29143,549.49019,641.47928
1916.632,524.48642,547.47777,643.89399
1919.383,519.05292,532.18367,630.0089
1922.132,517.84578,526.34809,632.02159
1924.879,510.60144,524.73843,626.78984
1927.624,503.96035,519.10355,613.70945
1930.367,502.55206,518.50023,613.30746
1933.109,500.13637,513.06595,604.25095
1935.848,490.27524,510.65067,598.81715
1938.586,485.24495,494.14981,591.37236
1941.321,489.27025,491.93668,587.95198
1944.055,476.59251,495.96188,581.71418
1946.787,470.9582,497.57226,579.09866
1949.517,474.17799,488.31514,567.02443
1952.245,470.15314,480.86922,562.39597
1954.971,465.52495,473.62491,557.56672
1957.695,458.68266,465.37394,556.15798
1960.418,449.82809,466.98397,545.29129
1963.138,452.84717,464.97201,550.12152
1965.857,438.55877,457.52589,535.0285
1968.574,434.13146,453.29985,530.60131
1971.289,436.34509,450.68365,527.18021
1974.002,425.67944,438.81059,527.58301
1976.713,424.87436,434.18188,507.45896
1979.422,413.20177,425.12548,495.18282
1982.13,410.58578,422.71075,487.93839
1984.835,398.51119,421.1009,478.27896
1987.539,396.29753,410.83748,470.02811
1990.241,396.29779,409.83153,467.0098
1992.941,382.41174,399.56795,461.57617
1995.639,386.83862,391.31634,458.95939
1998.335,379.3926,395.14008,444.47003
2001.029,374.96555,388.90185,451.7152
2003.722,367.11666,377.83304,436.21918
2006.412,370.9408,382.46217,430.18241
2009.101,359.46936,376.82691,426.35836
2011.788,358.66449,373.20458,421.93112
2014.473,353.02943,371.99697,421.72973
2017.156,353.83507,364.14901,421.7305
2019.838,358.46337,363.74611,412.67403
2022.517,351.41973,364.75238,416.09523
2025.195,345.78454,357.50722,404.62399
2027.871,341.55861,356.09878,402.20938
2030.545,348.80378,358.71524,404.2221
2033.217,347.39481,353.28131,394.76329
2035.887,342.16221,356.50113,402.6117
2038.556,338.3386,350.8663,393.15329
2041.223,331.49607,346.03628,389.93328
2043.887,332.5023,341.40755,385.3046
2046.55,330.48976,342.01124,385.90828
2049.212,324.45226,344.82868,378.26088
2051.871,325.25754,339.39527,377.25498
2054.529,318.81763,333.3579,377.25508
2057.184,321.03095,328.32623,371.82092
2059.838,311.37109,331.14384,367.19237
2062.49,308.95605,329.73506,361.75866
2065.14,310.3651,323.89915,358.33781
2067.789,307.94957,321.0811,359.14217
2070.436,308.5536,319.0689,352.70258
2073.08,300.30233,315.04389,350.28759
2075.723,301.71116,319.06897,353.50764
2078.365,300.30228,313.03135,348.27506
2081.004,298.69232,308.40265,344.85389
2083.642,295.47215,310.01247,341.23123
2086.277,296.27698,302.7673,341.02979
2088.911,291.84972,306.39007,339.21885
2091.544,286.01363,311.42152,334.99286
2094.174,282.18983,299.74898,332.37659
2096.803,284.20202,291.09487,323.52126
2099.429,281.78715,288.07625,323.11893
2102.054,282.79348,304.17638,324.32651
2104.678,276.55481,287.27145,319.09417
2107.299,272.52961,286.26502,317.68523
2109.919,272.52991,290.29037,313.45934
2112.537,275.34744,286.46659,314.66684
2115.153,268.90728,287.47275,309.23298
2117.767,270.31595,281.0326,310.84287
2120.379,260.25322,278.81872,307.01899
2122.99,260.65561,269.96352,302.18885
2125.599,262.06442,268.5548,300.37764
2128.206,251.59942,266.54243,296.7553
2130.812,253.20966,265.9389,293.33429
2133.415,252.60556,270.56733,294.54139
2136.017,252.80678,262.11472,289.91259
2138.617,248.78199,262.71875,286.69288
2141.215,247.97678,262.11478,290.31517
2143.812,248.98319,259.09615,278.84402
2146.407,244.95804,258.29105,287.09523
2149.0,244.15297,255.6747,281.66137
2151.591,244.15269,255.27191,275.82477
2154.181,242.34181,258.49237,278.84399
2156.768,236.90755,251.44808,275.01973
2159.354,238.11536,254.86969,277.63634
2161.939,243.75032,257.08333,277.43493
2164.521,238.11546,249.63722,270.99514
2167.102,237.10924,256.07736,268.58017
2169.681,235.90139,246.61813,274.61736
2172.258,233.88913,256.27856,269.78763
2174.833,233.88906,254.46721,274.01384
2177.407,237.914,256.68085,271.79992
2179.979,232.27881,247.42313,267.97604
2182.549,238.11548,251.85103,272.60519
2185.118,236.70663,249.83842,269.78758
2187.685,231.87621,250.03932,268.57968
2190.25,232.07749,242.39173,264.95717
2192.813,234.29149,247.22203,268.17745
2195.375,229.25994,244.40426,261.33464
2197.935,232.88272,244.60574,266.16493
2200.493,228.25403,242.39211,265.56135
2203.049,228.85772,242.39204,260.52996
2205.604,227.44874,236.15297,263.14601
2208.157,229.2601,236.7568,258.11478
2210.708,233.88902,240.98321,265.76247
2213.257,231.87652,244.2033,260.7312
2215.805,219.59975,242.19049,256.50459
2218.351,227.24753,236.75677,261.13353
2220.895,222.61883,237.36069,264.55499
2223.438,222.4174,233.33543,256.5047
2225.979,222.82013,230.92061,252.07738
2228.518,222.41749,234.14054,253.88852
2231.056,220.60621,231.92676,250.06473
2233.591,219.5999,232.53048,250.46718
2236.125,216.98352,232.53041,250.86961
2238.658,220.00261,233.13445,251.87618
2241.188,221.00871,235.75057,254.08977
2243.717,218.19093,231.1215,250.46697
2246.245,219.19711,229.51138,254.08941
2248.77,221.81366,227.29784,246.84459
2251.294,215.57489,226.6942,252.07731
2253.816,211.95226,228.10294,243.22212
2256.337,213.15976,226.09036,242.41707
2258.855,212.95854,221.05904,235.17198
2261.372,208.32955,222.26643,240.80693
2263.888,209.7384,219.04644,233.9644
2266.402,203.70078,217.83894,232.55566
2268.914,206.31685,217.83868,233.76289
2271.424,205.10943,214.21622,226.31663
2273.932,200.8831,216.83256,226.11541
2276.439,203.90181,212.80734,230.94537
2278.945,207.1222,216.83276,231.75074
2281.448,200.68191,218.04015,233.96439
2283.95,204.90838,221.46159,232.95824
2286.45,202.49301,215.42364,231.95162
2288.949,200.68181,218.2413,233.36051
2291.446,197.46155,212.00222,226.31643
2293.941,197.66292,217.63747,230.54288
2296.435,201.68831,214.01519,228.32942
2298.927,201.68796,211.80102,228.73153
2301.417,201.2857,214.41759,227.92679
2303.905,199.2732,211.39883,233.15947
2306.392,197.86444,214.8202,230.34195
2308.877,203.902,214.21631,226.9205
2311.361,199.07193,212.60634,229.93938
2313.843,200.0781,207.17235,229.93926
2316.323,195.24792,208.58108,226.9204
2318.802,194.04061,212.80768,221.68805
2321.279,201.48709,213.81398,228.53072
2323.754,198.46807,212.00248,222.89538
2326.228,198.0656,214.41758,221.88915
2328.7,195.85177,209.18493,221.08412
2331.17,195.24781,201.7383,220.27889
2333.639,190.01551,207.37382,220.88305
2336.106,189.61259,201.33571,219.47379
2338.571,196.25436,206.16619,223.70051
2341.035,190.41786,199.92719,220.2791
2343.497,188.40518,202.34212,213.83881
2345.957,189.41145,204.95843,218.66891
2348.416,188.00256,201.73825,216.05249
2350.873,189.4117,205.56247,220.883
2353.329,187.19769,201.53715,210.01502
2355.783,187.399,206.76985,215.24771
2358.235,192.83289,198.31711,218.06525
2360.686,189.61288,202.54356,215.6503
2363.135,187.39895,196.90829,214.64389
2365.582,189.00925,202.54371,218.66927
2368.028,184.58153,197.51223,215.24784
2370.472,186.79528,196.10337,206.79506
2372.915,177.53733,194.09064,208.20367
2375.355,186.99657,195.09713,209.81393
2377.795,182.97146,194.09086,204.78256
2380.232,182.36778,196.50603,210.21656
2382.668,181.16001,190.06559,204.37989
2385.103,178.94626,188.45562,207.19755
2387.536,176.73237,190.06559,199.75102
2389.967,175.12216,185.83905,198.94582
2392.397,177.33594,184.63148,200.15331
2394.824,171.90188,183.02128,198.74436
2397.251,172.90827,191.6754,203.17211
2399.676,174.11586,186.04029,203.37341
2402.099,175.12199,182.41752,196.93308
2404.52,170.29171,178.99604,200.35427
2406.94,172.30445,175.97738,195.72561
2409.359,173.31085,188.85789,192.7069
2411.775,174.71951,183.82635,199.34818
2414.191,168.8832,181.0089,200.75712
2416.604,169.48671,179.19733,198.34175
2419.016,168.68175,181.61246,193.71295
2421.426,171.29828,187.4491,192.30439
2423.835,171.90196,185.23518,193.91433
2426.242,170.89584,185.0341,197.1346
2428.648,161.63776,175.57478,188.27906
2431.052,168.68188,178.19125,191.4993
2433.454,165.26064,179.80143,193.31074
2435.855,166.26682,181.61263,190.49304
2438.255,168.88328,179.19768,196.32959
2440.652,170.89558,174.97102,191.2979
2443.048,167.273,175.97735,188.07786
2445.443,161.23535,176.78242,191.09675
2447.836,169.88976,185.83935,189.48712
2450.227,167.27324,178.59393,193.51203
2452.617,168.68197,177.78883,194.51823
2455.005,166.2668,182.82014,193.51186
2457.392,169.08459,181.41155,195.92714
2459.777,170.09098,184.43052,199.95238
2462.16,173.51225,181.61283,197.5372
2464.542,169.88956,178.59391,192.90825
2466.923,173.10982,186.04055,199.7511
2469.301,169.68834,178.19143,198.94595
2471.679,170.29212,180.60652,190.49322
2474.054,165.86462,183.22302,194.116
2476.428,166.87067,179.19763,195.52452
2478.801,169.88967,177.99025,196.73222
2481.172,167.67572,177.58761,193.51199
2483.541,165.86448,180.20403,191.70078
2485.909,171.90223,178.59402,198.94603
2488.275,166.26696,177.58766,192.10325
2490.64,164.45562,178.39265,194.51829
2493.003,160.43031,175.77613,190.29172
2495.365,163.24798,175.17244,191.90185
2497.725,162.24162,178.79498,195.12185
2500.084,165.66324,177.78897,193.71336
2502.441,164.65681,171.54985,187.47425
2504.796,160.43054,177.38643,182.24175
2507.15,160.43052,177.58767,188.27941
2509.503,167.07222,178.59418,193.51231
2511.853,162.24187,175.7764,182.84553
2514.203,159.4241,170.34229,180.63152
2516.55,159.8268,176.98397,182.44305
2518.897,151.37369,165.91452,181.43642
2521.241,154.39276,168.73234,178.82033
2523.585,151.57512,169.13481,178.61903
2525.926,152.98396,165.51223,177.21028
2528.266,156.20407,164.50593,175.60021
2530.605,152.38005,162.29197,177.81389
2532.942,150.97129,161.48699,174.19133
2535.277,144.93334,158.26664,169.36092
2537.611,146.94603,159.87682,170.56859
2539.944,149.76367,158.87057,169.96485
2542.275,145.13473,160.48062,172.17867
2544.604,145.13481,164.50584,174.59383
2546.932,142.92091,157.86429,171.1724
2549.259,149.15997,158.26688,170.1662
2551.583,149.15988,159.07181,166.94599
2553.907,152.17881,155.85176,170.56867
2556.229,141.71311,155.04641,167.34823
2558.549,145.73844,152.83277,167.14717
2560.868,146.34225,157.26047,161.10951
2563.185,146.9458,155.44892,164.73189
2565.501,142.92077,155.65031,172.37977
2567.815,144.32958,155.2478,173.98983
2570.128,144.93322,156.65645,168.75701
2572.439,145.33592,162.49311,174.19115
2574.749,144.12833,160.27923,167.14712
2577.057,144.3296,162.09056,172.3798
2579.364,149.96472,162.89549,170.56839
2581.669,142.51816,163.49921,176.00226
2583.973,146.74466,160.07796,174.9961
2586.275,145.53698,155.4489,171.17207
2588.576,145.13455,158.26659,170.36714
2590.875,142.31699,157.46161,166.14081
2593.173,143.52447,156.25399,166.7445
2595.469,143.122,156.25405,171.1722
2597.764,142.31701,158.87043,166.34209
2600.058,142.51826,159.27294,169.36094
2602.349,148.15348,153.43649,167.75089
2604.64,141.3107,153.23521,167.14709
2606.929,143.72564,152.22876,168.35445
2609.216,143.92709,158.26668,172.17855
2611.502,139.49909,159.47385,166.54298
2613.786,139.90157,157.6625,165.13415
2616.069,148.15336,153.43636,168.55577
2618.351,142.31686,157.86398,168.35448
2620.631,139.70036,154.03994,165.13421
2622.909,138.69408,149.00852,163.12164
2625.186,140.30443,152.63147,168.55592
2627.462,134.06537,148.00248,160.70683
2629.736,137.48672,150.41753,156.4804
2632.008,133.26014,142.97083,153.46136
2634.28,129.83887,138.9458,154.46777
2636.549,129.23498,139.14693,150.84502
2638.817,130.0401,139.54954,149.83883
2641.084,125.20984,142.16582,150.64378
2643.349,123.80098,138.34187,150.64372
2645.613,125.00864,138.14074,150.24134
2647.876,124.40485,136.53065,148.43001
2650.136,126.01484,133.71296,144.20351
2652.396,121.58718,131.70041,142.19097
2654.654,121.78852,130.29169,138.76968
2656.91,122.5936,131.49929,141.7886
2659.165,125.4112,133.71311,140.98355
2661.419,119.77595,127.87661,137.56215
2663.671,123.80108,131.0967,134.7445
2665.922,114.94569,126.26649,136.55582
2668.171,115.14702,125.46154,138.56848
2670.419,115.75069,121.23499,128.70671
2672.665,114.54315,122.64382,128.90798
2674.91,109.10908,119.22234,128.70663
2677.154,112.53062,123.85144,129.91435
2679.396,110.92038,117.61224,125.88899
2681.636,112.1281,118.6187,124.68162
2683.875,110.5179,116.80724,122.26638
2686.113,107.09652,112.78208,127.0966
2688.349,109.109,109.96435,121.46124
2690.584,109.31033,113.18457,119.65
2692.818,108.10286,116.00227,125.08407
2695.049,103.27258,111.57453,117.03367
2697.28,102.66877,110.36694,117.83867
2699.509,101.66251,104.12794,117.03367
2701.737,104.88265,108.75689,113.61227
2703.963,102.06501,110.36695,114.01477
2706.188,103.27273,107.95201,114.61873
2708.411,100.25375,106.54311,112.20352
2710.633,98.0399,106.1406,111.80102
2712.853,96.42981,110.16577,108.78212
2715.073,100.65628,105.73808,119.2476
2717.29,98.24122,107.14696,113.81367
2719.506,94.81968,106.14053,114.01479
2721.721,95.42362,105.53693,110.79483
2723.935,96.83228,104.12794,107.77577
2726.147,103.07146,106.74445,113.41116
2728.357,97.8387,108.35452,110.19101
2730.566,96.42984,105.33559,112.40482
2732.774,99.64996,105.93932,109.78841
2734.98,99.65004,106.34193,111.59983
2737.185,94.61849,106.74439,115.82621
2739.389,95.82611,104.12808,112.40488
2741.591,98.845,106.54319,115.42375
2743.792,99.24755,107.54951,113.61245
2745.991,99.24754,106.94572,112.20362
2748.189,96.02738,105.73816,114.01496
2750.385,97.03368,107.95203,115.42378
2752.58,98.84506,108.75711,118.04019
2754.774,101.26024,110.76977,116.02767
2756.966,99.24749,106.94567,117.03378
2759.157,95.6242,104.12737,114.21543
2761.346,97.63739,106.34187,114.01488
2763.534,100.25384,108.75706,115.62503
2765.721,95.62487,106.14069,111.80112
2767.906,95.02105,103.72554,109.98974
2770.09,92.60593,103.52428,110.39226
2772.273,93.61223,98.29153,111.80108
2774.454,90.59338,102.92057,109.18477
2776.634,93.81339,102.31662,106.36696
2778.812,98.44258,102.71935,107.17223
2780.989,96.63123,104.32943,110.39237
2783.164,93.61225,99.90162,105.36079
2785.339,88.37937,95.27253,104.75689
2787.511,85.76314,98.09034,103.95204
2789.683,88.78195,100.70661,107.77585
2791.853,90.59338,98.69411,111.19737
2794.021,92.00219,98.29157,109.38601
2796.189,94.21606,97.6878,109.58728
2798.354,92.60599,100.50545,102.94573
2800.519,90.99586,98.29154,103.54946
2802.682,92.2035,99.49919,104.15332
2804.844,91.19713,95.07139,101.53686
2807.004,92.00222,98.89538,103.75077
2809.163,89.38584,95.07144,99.92685
2811.321,89.78832,95.67518,108.98349
2813.477,87.97694,91.8512,99.12172
2815.632,92.00226,94.66896,98.71932
2817.785,88.7821,95.67527,101.13446
2819.938,83.95177,93.66258,97.10916
2822.088,86.97073,93.8639,99.32309
2824.238,90.39208,91.85121,102.34189
2826.386,88.17832,93.05889,95.09665
2828.533,84.15302,93.66258,95.70033
2830.678,85.15935,92.25379,98.31675
2832.822,81.33536,88.22854,95.49907
2834.965,80.73165,82.39205,92.48025
2837.106,82.74421,86.21596,92.88271
2839.246,77.91394,86.81973,92.07766
2841.384,75.49882,84.80714,88.45499
2843.521,82.74414,88.42975,90.46751
2845.657,78.3164,85.6121,90.87003
2847.792,77.31013,83.19701,90.06502
2849.925,78.92022,82.59323,93.08393
2852.057,72.47987,83.8008,88.65621
2854.187,80.12783,83.59958,91.4739
2856.316,76.50512,83.59956,93.08397
2858.444,73.28494,84.40461,89.66254
2860.57,74.69371,82.39194,90.065
2862.696,78.51766,86.01462,88.05238
2864.819,76.50501,81.7881,86.03973
2866.942,70.8696,75.75017,79.80054
2869.063,70.46708,78.56782,84.22827
2871.182,75.90118,81.5868,91.27244
2873.301,75.09617,85.81329,86.03971
2875.418,76.30377,83.59947,88.45488
2877.534,78.11519,87.62476,93.88899
2879.648,77.51141,85.81342,90.46757
2881.761,80.93289,91.85128,99.32307
2883.873,81.13416,88.83238,99.32308
2885.983,80.93292,89.23492,99.12184
2888.092,83.14674,92.85756,97.10918
2890.2,81.13404,91.24737,96.30403
2892.306,83.95184,91.65006,96.70673
2894.411,82.14051,88.63117,100.12818
2896.515,77.71267,83.80082,92.8827
2898.617,75.09627,82.59324,94.2915
2900.718,77.10895,86.01475,90.06512
2902.818,76.10266,79.57442,91.2727
2904.917,74.29127,83.19707,88.25374
2907.014,76.1026,79.37309,89.86381
2909.11,74.69385,77.56182,87.24751
2911.204,71.27235,76.95798,85.23484
2913.297,75.90137,77.76304,87.64998
2915.389,73.68754,77.76308,85.2349
2917.48,72.27861,79.37306,83.42344
2919.569,69.46105,81.98957,85.83869
2921.657,71.27239,76.5555,83.02102
2923.743,70.06482,76.15298,82.81976
2925.829,68.65597,72.73151,82.41721
2927.913,73.28505,72.93284,84.63115
2929.995,74.69385,81.58705,83.42355
2932.077,71.07119,79.77575,83.42361
2934.157,68.85725,76.75676,81.61218
2936.236,71.27238,73.9391,85.23488
2938.313,70.66867,77.56189,89.26019
2940.389,66.03961,73.93914,84.42988
2942.464,72.47996,78.16559,81.41093
2944.538,68.25343,71.72519,83.22223
2946.61,67.44842,74.34163,82.41724
2948.681,71.0712,74.3417,82.0148
2950.751,71.87623,72.93285,84.02738
2952.819,67.6497,73.33534,82.01473
2954.886,71.67496,73.53663,84.83242
2956.952,71.07113,79.1719,80.40463
2959.016,73.48628,79.57443,85.43616
2961.08,71.87622,81.18456,89.0589
2963.142,75.70016,87.22235,91.87651
2965.202,78.71909,85.61228,97.31055
2967.262,83.34808,91.24756,93.08406
2969.32,82.34181,92.25391,102.34209
2971.376,77.71278,93.05893,104.1534
2973.432,80.3291,89.83867,97.51172
2975.486,77.51144,85.61219,96.90793
2977.539,80.32928,85.20986,98.31698
2979.591,76.10263,84.80717,95.29788
2981.641,78.92035,84.20345,98.51811
2983.69,81.53681,87.62496,100.12828
2985.738,81.93924,86.01478,100.53069
2987.785,82.74442,89.43636,103.54976
2989.83,85.36078,98.49305,106.1661
2991.874,84.95821,97.88921,110.19123
2993.916,88.78224,101.71324,116.43038
2995.958,95.6252,106.94611,118.64434
2997.998,85.36076,101.71319,112.40513
3000.037,85.96454,98.0905,105.76355
3002.075,81.33552,90.64384,103.54967
3004.111,80.73177,89.23505,104.95853
3006.146,76.9078,89.23505,99.32324
3008.18,77.31032,88.43,100.93332
3010.212,74.49263,88.22871,94.69421
3012.244,77.31028,86.21608,99.92696
3014.274,73.48631,87.22239,96.30428
3016.302,75.70027,90.04014,101.93968
3018.33,77.10907,89.0338,103.1472
3020.356,81.7381,94.87038,102.94596
3022.381,83.34828,98.69444,109.99018
3024.405,81.13438,96.88306,107.37376
3026.427,81.73817,94.87047,110.19142
3028.449,86.36719,96.2793,113.21033
3030.469,85.56221,101.31089,116.63183
3032.487,0.62896,0.47801,0.70443
3034.505,-1.58498,-1.13213,0.10063
3036.521,-3.19511,-2.13846,-3.52217
